"","Date","Value"
"98328631",2017-08-27 08:53:13.565,12
"98328641",2017-08-27 08:53:13.569,12
"98328651",2017-08-27 08:53:13.575,14
"98328661",2017-08-27 08:53:13.579,16
"98328671",2017-08-27 08:53:13.585,18
"98328681",2017-08-27 08:53:13.589,19
"98328691",2017-08-27 08:53:13.595,19
"98328701",2017-08-27 08:53:13.599,21
"98328711",2017-08-27 08:53:13.605,24
"98328721",2017-08-27 08:53:13.609,26
"98328731",2017-08-27 08:53:13.615,27
"98328741",2017-08-27 08:53:13.619,29
"98328751",2017-08-27 08:53:13.625,31
"98328761",2017-08-27 08:53:13.630,30
"98328771",2017-08-27 08:53:13.634,28
"98328781",2017-08-27 08:53:13.640,29
"98328791",2017-08-27 08:53:13.644,30
"98328801",2017-08-27 08:53:13.650,30
"98328811",2017-08-27 08:53:13.654,28
"98328821",2017-08-27 08:53:13.660,25
"98328831",2017-08-27 08:53:13.664,21
"98328841",2017-08-27 08:53:13.670,16
"98328851",2017-08-27 08:53:13.674,10
"98328861",2017-08-27 08:53:13.680,5
"98328871",2017-08-27 08:53:13.684,0
"98328881",2017-08-27 08:53:13.690,-2
"98328891",2017-08-27 08:53:13.694,-3
"98328901",2017-08-27 08:53:13.700,-6
"98328911",2017-08-27 08:53:13.704,-10
"98328921",2017-08-27 08:53:13.710,-12
"98328931",2017-08-27 08:53:13.714,-14
"98328941",2017-08-27 08:53:13.720,-16
"98328951",2017-08-27 08:53:13.724,-15
"98328961",2017-08-27 08:53:13.730,-14
"98328971",2017-08-27 08:53:13.734,-14
"98328981",2017-08-27 08:53:13.740,-14
"98328991",2017-08-27 08:53:13.744,-15
"98329001",2017-08-27 08:53:13.750,-16
"98329011",2017-08-27 08:53:13.755,-14
"98329021",2017-08-27 08:53:13.759,-13
"98329031",2017-08-27 08:53:13.765,-14
"98329041",2017-08-27 08:53:13.769,-14
"98329051",2017-08-27 08:53:13.775,-13
"98329061",2017-08-27 08:53:13.779,-15
"98329071",2017-08-27 08:53:13.785,-15
"98329081",2017-08-27 08:53:13.789,-14
"98329091",2017-08-27 08:53:13.795,-14
"98329101",2017-08-27 08:53:13.799,-13
"98329111",2017-08-27 08:53:13.805,-10
"98329121",2017-08-27 08:53:13.809,-11
"98329131",2017-08-27 08:53:13.815,-12
"98329141",2017-08-27 08:53:13.819,-11
"98329151",2017-08-27 08:53:13.825,-10
"98329161",2017-08-27 08:53:13.829,-10
"98329171",2017-08-27 08:53:13.835,-10
"98329181",2017-08-27 08:53:13.839,-10
"98329191",2017-08-27 08:53:13.845,-11
"98329201",2017-08-27 08:53:13.849,-10
"98329211",2017-08-27 08:53:13.855,-9
"98329221",2017-08-27 08:53:13.859,-9
"98329231",2017-08-27 08:53:13.865,-10
"98329241",2017-08-27 08:53:13.869,-12
"98329251",2017-08-27 08:53:13.875,-13
"98329261",2017-08-27 08:53:13.880,-12
"98329271",2017-08-27 08:53:13.884,-10
"98329281",2017-08-27 08:53:13.890,-10
"98329291",2017-08-27 08:53:13.894,-9
"98329301",2017-08-27 08:53:13.900,-9
"98329311",2017-08-27 08:53:13.904,-9
"98329321",2017-08-27 08:53:13.910,-10
"98329331",2017-08-27 08:53:13.914,-12
"98329341",2017-08-27 08:53:13.920,-11
"98329351",2017-08-27 08:53:13.924,-9
"98329361",2017-08-27 08:53:13.930,-12
"98329371",2017-08-27 08:53:13.934,-13
"98329381",2017-08-27 08:53:13.940,-11
"98329391",2017-08-27 08:53:13.944,-12
"98329401",2017-08-27 08:53:13.950,-12
"98329411",2017-08-27 08:53:13.954,-10
"98329421",2017-08-27 08:53:13.960,-10
"98329431",2017-08-27 08:53:13.964,-12
"98329441",2017-08-27 08:53:13.970,-13
"98329451",2017-08-27 08:53:13.974,-12
"98329461",2017-08-27 08:53:13.980,-11
"98329471",2017-08-27 08:53:13.984,-9
"98329481",2017-08-27 08:53:13.990,-7
"98329491",2017-08-27 08:53:13.994,-5
"98329501",2017-08-27 08:53:14.000,-5
"98329511",2017-08-27 08:53:14.005,-4
"98329521",2017-08-27 08:53:14.009,-2
"98329531",2017-08-27 08:53:14.015,-1
"98329541",2017-08-27 08:53:14.019,-3
"98329551",2017-08-27 08:53:14.025,-6
"98329561",2017-08-27 08:53:14.029,-9
"98329571",2017-08-27 08:53:14.035,-11
"98329581",2017-08-27 08:53:14.039,-10
"98329591",2017-08-27 08:53:14.045,-9
"98329601",2017-08-27 08:53:14.049,-8
"98329611",2017-08-27 08:53:14.055,-6
"98329621",2017-08-27 08:53:14.059,9
"98329631",2017-08-27 08:53:14.065,41
"98329641",2017-08-27 08:53:14.069,76
"98329651",2017-08-27 08:53:14.075,87
"98329661",2017-08-27 08:53:14.079,61
"98329671",2017-08-27 08:53:14.085,16
"98329681",2017-08-27 08:53:14.089,-9
"98329691",2017-08-27 08:53:14.095,-8
"98329701",2017-08-27 08:53:14.099,3
"98329711",2017-08-27 08:53:14.105,9
"98329721",2017-08-27 08:53:14.109,8
"98329731",2017-08-27 08:53:14.115,9
"98329741",2017-08-27 08:53:14.119,10
"98329751",2017-08-27 08:53:14.125,9
"98329761",2017-08-27 08:53:14.130,6
"98329771",2017-08-27 08:53:14.134,2
"98329781",2017-08-27 08:53:14.140,1
"98329791",2017-08-27 08:53:14.144,2
"98329801",2017-08-27 08:53:14.150,2
"98329811",2017-08-27 08:53:14.154,2
"98329821",2017-08-27 08:53:14.160,2
"98329831",2017-08-27 08:53:14.164,2
"98329841",2017-08-27 08:53:14.170,5
"98329851",2017-08-27 08:53:14.174,6
"98329861",2017-08-27 08:53:14.180,6
"98329871",2017-08-27 08:53:14.184,6
"98329881",2017-08-27 08:53:14.190,6
"98329891",2017-08-27 08:53:14.194,6
"98329901",2017-08-27 08:53:14.200,7
"98329911",2017-08-27 08:53:14.204,8
"98329921",2017-08-27 08:53:14.210,8
"98329931",2017-08-27 08:53:14.214,8
"98329941",2017-08-27 08:53:14.220,8
"98329951",2017-08-27 08:53:14.224,9
"98329961",2017-08-27 08:53:14.230,9
"98329971",2017-08-27 08:53:14.234,9
"98329981",2017-08-27 08:53:14.240,12
"98329991",2017-08-27 08:53:14.244,13
"98330001",2017-08-27 08:53:14.250,15
"98330011",2017-08-27 08:53:14.255,15
"98330021",2017-08-27 08:53:14.259,17
"98330031",2017-08-27 08:53:14.265,20
"98330041",2017-08-27 08:53:14.269,23
"98330051",2017-08-27 08:53:14.275,24
"98330061",2017-08-27 08:53:14.279,25
"98330071",2017-08-27 08:53:14.285,26
"98330081",2017-08-27 08:53:14.289,26
"98330091",2017-08-27 08:53:14.295,27
"98330101",2017-08-27 08:53:14.299,29
"98330111",2017-08-27 08:53:14.305,29
"98330121",2017-08-27 08:53:14.309,28
"98330131",2017-08-27 08:53:14.315,27
"98330141",2017-08-27 08:53:14.319,26
"98330151",2017-08-27 08:53:14.325,23
"98330161",2017-08-27 08:53:14.329,21
"98330171",2017-08-27 08:53:14.335,18
"98330181",2017-08-27 08:53:14.339,13
"98330191",2017-08-27 08:53:14.345,8
"98330201",2017-08-27 08:53:14.349,3
"98330211",2017-08-27 08:53:14.355,-2
"98330221",2017-08-27 08:53:14.359,-7
"98330231",2017-08-27 08:53:14.365,-10
"98330241",2017-08-27 08:53:14.369,-11
"98330251",2017-08-27 08:53:14.375,-13
"98330261",2017-08-27 08:53:14.380,-15
"98330271",2017-08-27 08:53:14.384,-16
"98330281",2017-08-27 08:53:14.390,-16
"98330291",2017-08-27 08:53:14.394,-17
"98330301",2017-08-27 08:53:14.400,-19
"98330311",2017-08-27 08:53:14.404,-19
"98330321",2017-08-27 08:53:14.410,-17
"98330331",2017-08-27 08:53:14.414,-14
"98330341",2017-08-27 08:53:14.420,-15
"98330351",2017-08-27 08:53:14.424,-16
"98330361",2017-08-27 08:53:14.430,-17
"98330371",2017-08-27 08:53:14.434,-16
"98330381",2017-08-27 08:53:14.440,-15
"98330391",2017-08-27 08:53:14.444,-15
"98330401",2017-08-27 08:53:14.450,-15
"98330411",2017-08-27 08:53:14.454,-16
"98330421",2017-08-27 08:53:14.460,-15
"98330431",2017-08-27 08:53:14.464,-13
"98330441",2017-08-27 08:53:14.470,-13
"98330451",2017-08-27 08:53:14.474,-14
"98330461",2017-08-27 08:53:14.480,-15
"98330471",2017-08-27 08:53:14.484,-14
"98330481",2017-08-27 08:53:14.490,-11
"98330491",2017-08-27 08:53:14.494,-10
"98330501",2017-08-27 08:53:14.500,-13
"98330511",2017-08-27 08:53:14.505,-14
"98330521",2017-08-27 08:53:14.509,-13
"98330531",2017-08-27 08:53:14.515,-11
"98330541",2017-08-27 08:53:14.519,-11
"98330551",2017-08-27 08:53:14.525,-13
"98330561",2017-08-27 08:53:14.529,-15
"98330571",2017-08-27 08:53:14.535,-15
"98330581",2017-08-27 08:53:14.539,-15
"98330591",2017-08-27 08:53:14.545,-13
"98330601",2017-08-27 08:53:14.549,-11
"98330611",2017-08-27 08:53:14.555,-10
"98330621",2017-08-27 08:53:14.559,-10
"98330631",2017-08-27 08:53:14.565,-11
"98330641",2017-08-27 08:53:14.569,-12
"98330651",2017-08-27 08:53:14.575,-11
"98330661",2017-08-27 08:53:14.579,-12
"98330671",2017-08-27 08:53:14.585,-12
"98330681",2017-08-27 08:53:14.589,-11
"98330691",2017-08-27 08:53:14.595,-13
"98330701",2017-08-27 08:53:14.599,-16
"98330711",2017-08-27 08:53:14.605,-13
"98330721",2017-08-27 08:53:14.609,-12
"98330731",2017-08-27 08:53:14.615,-14
"98330741",2017-08-27 08:53:14.619,-14
"98330751",2017-08-27 08:53:14.625,-12
"98330761",2017-08-27 08:53:14.630,-11
"98330771",2017-08-27 08:53:14.634,-13
"98330781",2017-08-27 08:53:14.640,-14
"98330791",2017-08-27 08:53:14.644,-13
"98330801",2017-08-27 08:53:14.650,-11
"98330811",2017-08-27 08:53:14.654,-8
"98330821",2017-08-27 08:53:14.660,-7
"98330831",2017-08-27 08:53:14.664,-7
"98330841",2017-08-27 08:53:14.670,-8
"98330851",2017-08-27 08:53:14.674,-7
"98330861",2017-08-27 08:53:14.680,-6
"98330871",2017-08-27 08:53:14.684,-5
"98330881",2017-08-27 08:53:14.690,-4
"98330891",2017-08-27 08:53:14.694,-6
"98330901",2017-08-27 08:53:14.700,-9
"98330911",2017-08-27 08:53:14.704,-10
"98330921",2017-08-27 08:53:14.710,-11
"98330931",2017-08-27 08:53:14.714,-10
"98330941",2017-08-27 08:53:14.720,-8
"98330951",2017-08-27 08:53:14.724,-3
"98330961",2017-08-27 08:53:14.730,14
"98330971",2017-08-27 08:53:14.734,48
"98330981",2017-08-27 08:53:14.740,81
"98330991",2017-08-27 08:53:14.744,90
"98331001",2017-08-27 08:53:14.750,59
"98331011",2017-08-27 08:53:14.755,11
"98331021",2017-08-27 08:53:14.759,-12
"98331031",2017-08-27 08:53:14.765,-8
"98331041",2017-08-27 08:53:14.769,3
"98331051",2017-08-27 08:53:14.775,8
"98331061",2017-08-27 08:53:14.779,8
"98331071",2017-08-27 08:53:14.785,7
"98331081",2017-08-27 08:53:14.789,5
"98331091",2017-08-27 08:53:14.795,4
"98331101",2017-08-27 08:53:14.799,4
"98331111",2017-08-27 08:53:14.805,3
"98331121",2017-08-27 08:53:14.809,1
"98331131",2017-08-27 08:53:14.815,0
"98331141",2017-08-27 08:53:14.819,1
"98331151",2017-08-27 08:53:14.825,3
"98331161",2017-08-27 08:53:14.829,4
"98331171",2017-08-27 08:53:14.835,2
"98331181",2017-08-27 08:53:14.839,2
"98331191",2017-08-27 08:53:14.845,3
"98331201",2017-08-27 08:53:14.849,5
"98331211",2017-08-27 08:53:14.855,5
"98331221",2017-08-27 08:53:14.859,5
"98331231",2017-08-27 08:53:14.865,4
"98331241",2017-08-27 08:53:14.869,5
"98331251",2017-08-27 08:53:14.875,6
"98331261",2017-08-27 08:53:14.880,8
"98331271",2017-08-27 08:53:14.884,7
"98331281",2017-08-27 08:53:14.890,8
"98331291",2017-08-27 08:53:14.894,11
"98331301",2017-08-27 08:53:14.900,11
"98331311",2017-08-27 08:53:14.904,10
"98331321",2017-08-27 08:53:14.910,12
"98331331",2017-08-27 08:53:14.914,15
"98331341",2017-08-27 08:53:14.920,17
"98331351",2017-08-27 08:53:14.924,17
"98331361",2017-08-27 08:53:14.930,18
"98331371",2017-08-27 08:53:14.934,21
"98331381",2017-08-27 08:53:14.940,24
"98331391",2017-08-27 08:53:14.944,24
"98331401",2017-08-27 08:53:14.950,24
"98331411",2017-08-27 08:53:14.954,25
"98331421",2017-08-27 08:53:14.960,26
"98331431",2017-08-27 08:53:14.964,28
"98331441",2017-08-27 08:53:14.970,29
"98331451",2017-08-27 08:53:14.974,28
"98331461",2017-08-27 08:53:14.980,27
"98331471",2017-08-27 08:53:14.984,26
"98331481",2017-08-27 08:53:14.990,26
"98331491",2017-08-27 08:53:14.994,24
"98331501",2017-08-27 08:53:15.000,21
"98331511",2017-08-27 08:53:15.005,15
"98331521",2017-08-27 08:53:15.009,9
"98331531",2017-08-27 08:53:15.015,5
"98331541",2017-08-27 08:53:15.019,3
"98331551",2017-08-27 08:53:15.025,0
"98331561",2017-08-27 08:53:15.029,-6
"98331571",2017-08-27 08:53:15.035,-10
"98331581",2017-08-27 08:53:15.039,-13
"98331591",2017-08-27 08:53:15.045,-15
"98331601",2017-08-27 08:53:15.049,-15
"98331611",2017-08-27 08:53:15.055,-16
"98331621",2017-08-27 08:53:15.059,-18
"98331631",2017-08-27 08:53:15.065,-20
"98331641",2017-08-27 08:53:15.069,-18
"98331651",2017-08-27 08:53:15.075,-16
"98331661",2017-08-27 08:53:15.079,-16
"98331671",2017-08-27 08:53:15.085,-17
"98331681",2017-08-27 08:53:15.089,-16
"98331691",2017-08-27 08:53:15.095,-15
"98331701",2017-08-27 08:53:15.099,-17
"98331711",2017-08-27 08:53:15.105,-17
"98331721",2017-08-27 08:53:15.109,-15
"98331731",2017-08-27 08:53:15.115,-15
"98331741",2017-08-27 08:53:15.119,-16
"98331751",2017-08-27 08:53:15.125,-16
"98331761",2017-08-27 08:53:15.130,-14
"98331771",2017-08-27 08:53:15.134,-12
"98331781",2017-08-27 08:53:15.140,-12
"98331791",2017-08-27 08:53:15.144,-13
"98331801",2017-08-27 08:53:15.150,-14
"98331811",2017-08-27 08:53:15.154,-15
"98331821",2017-08-27 08:53:15.160,-13
"98331831",2017-08-27 08:53:15.164,-11
"98331841",2017-08-27 08:53:15.170,-12
"98331851",2017-08-27 08:53:15.174,-14
"98331861",2017-08-27 08:53:15.180,-14
"98331871",2017-08-27 08:53:15.184,-13
"98331881",2017-08-27 08:53:15.190,-11
"98331891",2017-08-27 08:53:15.194,-11
"98331901",2017-08-27 08:53:15.200,-10
"98331911",2017-08-27 08:53:15.204,-9
"98331921",2017-08-27 08:53:15.210,-10
"98331931",2017-08-27 08:53:15.214,-12
"98331941",2017-08-27 08:53:15.220,-13
"98331951",2017-08-27 08:53:15.224,-12
"98331961",2017-08-27 08:53:15.230,-11
"98331971",2017-08-27 08:53:15.234,-12
"98331981",2017-08-27 08:53:15.240,-13
"98331991",2017-08-27 08:53:15.244,-13
"98332001",2017-08-27 08:53:15.250,-10
"98332011",2017-08-27 08:53:15.255,-7
"98332021",2017-08-27 08:53:15.259,-8
"98332031",2017-08-27 08:53:15.265,-11
"98332041",2017-08-27 08:53:15.269,-11
"98332051",2017-08-27 08:53:15.275,-9
"98332061",2017-08-27 08:53:15.279,-10
"98332071",2017-08-27 08:53:15.285,-11
"98332081",2017-08-27 08:53:15.289,-11
"98332091",2017-08-27 08:53:15.295,-12
"98332101",2017-08-27 08:53:15.299,-12
"98332111",2017-08-27 08:53:15.305,-12
"98332121",2017-08-27 08:53:15.309,-13
"98332131",2017-08-27 08:53:15.315,-14
"98332141",2017-08-27 08:53:15.319,-11
"98332151",2017-08-27 08:53:15.325,-8
"98332161",2017-08-27 08:53:15.329,-9
"98332171",2017-08-27 08:53:15.335,-8
"98332181",2017-08-27 08:53:15.339,-5
"98332191",2017-08-27 08:53:15.345,-3
"98332201",2017-08-27 08:53:15.349,-3
"98332211",2017-08-27 08:53:15.355,-5
"98332221",2017-08-27 08:53:15.359,-8
"98332231",2017-08-27 08:53:15.365,-11
"98332241",2017-08-27 08:53:15.369,-11
"98332251",2017-08-27 08:53:15.375,-10
"98332261",2017-08-27 08:53:15.380,-8
"98332271",2017-08-27 08:53:15.384,-9
"98332281",2017-08-27 08:53:15.390,-8
"98332291",2017-08-27 08:53:15.394,-3
"98332301",2017-08-27 08:53:15.400,15
"98332311",2017-08-27 08:53:15.404,50
"98332321",2017-08-27 08:53:15.410,87
"98332331",2017-08-27 08:53:15.414,91
"98332341",2017-08-27 08:53:15.420,53
"98332351",2017-08-27 08:53:15.424,3
"98332361",2017-08-27 08:53:15.430,-18
"98332371",2017-08-27 08:53:15.434,-11
"98332381",2017-08-27 08:53:15.440,3
"98332391",2017-08-27 08:53:15.444,9
"98332401",2017-08-27 08:53:15.450,8
"98332411",2017-08-27 08:53:15.454,7
"98332421",2017-08-27 08:53:15.460,6
"98332431",2017-08-27 08:53:15.464,6
"98332441",2017-08-27 08:53:15.470,6
"98332451",2017-08-27 08:53:15.474,4
"98332461",2017-08-27 08:53:15.480,3
"98332471",2017-08-27 08:53:15.484,2
"98332481",2017-08-27 08:53:15.490,3
"98332491",2017-08-27 08:53:15.494,4
"98332501",2017-08-27 08:53:15.500,5
"98332511",2017-08-27 08:53:15.505,4
"98332521",2017-08-27 08:53:15.509,2
"98332531",2017-08-27 08:53:15.515,4
"98332541",2017-08-27 08:53:15.519,7
"98332551",2017-08-27 08:53:15.525,7
"98332561",2017-08-27 08:53:15.529,6
"98332571",2017-08-27 08:53:15.535,7
"98332581",2017-08-27 08:53:15.539,9
"98332591",2017-08-27 08:53:15.545,9
"98332601",2017-08-27 08:53:15.549,9
"98332611",2017-08-27 08:53:15.555,10
"98332621",2017-08-27 08:53:15.559,11
"98332631",2017-08-27 08:53:15.565,12
"98332641",2017-08-27 08:53:15.569,11
"98332651",2017-08-27 08:53:15.575,12
"98332661",2017-08-27 08:53:15.579,14
"98332671",2017-08-27 08:53:15.585,16
"98332681",2017-08-27 08:53:15.589,16
"98332691",2017-08-27 08:53:15.595,16
"98332701",2017-08-27 08:53:15.599,19
"98332711",2017-08-27 08:53:15.605,21
"98332721",2017-08-27 08:53:15.609,24
"98332731",2017-08-27 08:53:15.615,26
"98332741",2017-08-27 08:53:15.619,26
"98332751",2017-08-27 08:53:15.625,26
"98332761",2017-08-27 08:53:15.630,29
"98332771",2017-08-27 08:53:15.634,30
"98332781",2017-08-27 08:53:15.640,30
"98332791",2017-08-27 08:53:15.644,29
"98332801",2017-08-27 08:53:15.650,28
"98332811",2017-08-27 08:53:15.654,28
"98332821",2017-08-27 08:53:15.660,28
"98332831",2017-08-27 08:53:15.664,23
"98332841",2017-08-27 08:53:15.670,19
"98332851",2017-08-27 08:53:15.674,15
"98332861",2017-08-27 08:53:15.680,11
"98332871",2017-08-27 08:53:15.684,6
"98332881",2017-08-27 08:53:15.690,1
"98332891",2017-08-27 08:53:15.694,-3
"98332901",2017-08-27 08:53:15.700,-8
"98332911",2017-08-27 08:53:15.704,-13
"98332921",2017-08-27 08:53:15.710,-16
"98332931",2017-08-27 08:53:15.714,-16
"98332941",2017-08-27 08:53:15.720,-16
"98332951",2017-08-27 08:53:15.724,-16
"98332961",2017-08-27 08:53:15.730,-18
"98332971",2017-08-27 08:53:15.734,-20
"98332981",2017-08-27 08:53:15.740,-20
"98332991",2017-08-27 08:53:15.744,-19
"98333001",2017-08-27 08:53:15.750,-19
"98333011",2017-08-27 08:53:15.755,-19
"98333021",2017-08-27 08:53:15.759,-20
"98333031",2017-08-27 08:53:15.765,-20
"98333041",2017-08-27 08:53:15.769,-20
"98333051",2017-08-27 08:53:15.775,-19
"98333061",2017-08-27 08:53:15.779,-19
"98333071",2017-08-27 08:53:15.785,-18
"98333081",2017-08-27 08:53:15.789,-18
"98333091",2017-08-27 08:53:15.795,-18
"98333101",2017-08-27 08:53:15.799,-17
"98333111",2017-08-27 08:53:15.805,-19
"98333121",2017-08-27 08:53:15.809,-19
"98333131",2017-08-27 08:53:15.815,-18
"98333141",2017-08-27 08:53:15.819,-18
"98333151",2017-08-27 08:53:15.825,-16
"98333161",2017-08-27 08:53:15.829,-14
"98333171",2017-08-27 08:53:15.835,-14
"98333181",2017-08-27 08:53:15.839,-16
"98333191",2017-08-27 08:53:15.845,-16
"98333201",2017-08-27 08:53:15.849,-16
"98333211",2017-08-27 08:53:15.855,-17
"98333221",2017-08-27 08:53:15.859,-17
"98333231",2017-08-27 08:53:15.865,-15
"98333241",2017-08-27 08:53:15.869,-15
"98333251",2017-08-27 08:53:15.875,-16
"98333261",2017-08-27 08:53:15.880,-16
"98333271",2017-08-27 08:53:15.884,-15
"98333281",2017-08-27 08:53:15.890,-16
"98333291",2017-08-27 08:53:15.894,-17
"98333301",2017-08-27 08:53:15.900,-17
"98333311",2017-08-27 08:53:15.904,-15
"98333321",2017-08-27 08:53:15.910,-15
"98333331",2017-08-27 08:53:15.914,-16
"98333341",2017-08-27 08:53:15.920,-17
"98333351",2017-08-27 08:53:15.924,-15
"98333361",2017-08-27 08:53:15.930,-15
"98333371",2017-08-27 08:53:15.934,-18
"98333381",2017-08-27 08:53:15.940,-17
"98333391",2017-08-27 08:53:15.944,-15
"98333401",2017-08-27 08:53:15.950,-16
"98333411",2017-08-27 08:53:15.954,-16
"98333421",2017-08-27 08:53:15.960,-16
"98333431",2017-08-27 08:53:15.964,-17
"98333441",2017-08-27 08:53:15.970,-18
"98333451",2017-08-27 08:53:15.974,-17
"98333461",2017-08-27 08:53:15.980,-17
"98333471",2017-08-27 08:53:15.984,-18
"98333481",2017-08-27 08:53:15.990,-18
"98333491",2017-08-27 08:53:15.994,-15
"98333501",2017-08-27 08:53:16.000,-11
"98333511",2017-08-27 08:53:16.005,-9
"98333521",2017-08-27 08:53:16.009,-10
"98333531",2017-08-27 08:53:16.015,-9
"98333541",2017-08-27 08:53:16.019,-9
"98333551",2017-08-27 08:53:16.025,-9
"98333561",2017-08-27 08:53:16.029,-11
"98333571",2017-08-27 08:53:16.035,-13
"98333581",2017-08-27 08:53:16.039,-15
"98333591",2017-08-27 08:53:16.045,-15
"98333601",2017-08-27 08:53:16.049,-14
"98333611",2017-08-27 08:53:16.055,-13
"98333621",2017-08-27 08:53:16.059,-11
"98333631",2017-08-27 08:53:16.065,4
"98333641",2017-08-27 08:53:16.069,40
"98333651",2017-08-27 08:53:16.075,75
"98333661",2017-08-27 08:53:16.079,83
"98333671",2017-08-27 08:53:16.085,56
"98333681",2017-08-27 08:53:16.089,12
"98333691",2017-08-27 08:53:16.095,-16
"98333701",2017-08-27 08:53:16.099,-15
"98333711",2017-08-27 08:53:16.105,-3
"98333721",2017-08-27 08:53:16.109,4
"98333731",2017-08-27 08:53:16.115,5
"98333741",2017-08-27 08:53:16.119,2
"98333751",2017-08-27 08:53:16.125,2
"98333761",2017-08-27 08:53:16.130,2
"98333771",2017-08-27 08:53:16.134,0
"98333781",2017-08-27 08:53:16.140,-2
"98333791",2017-08-27 08:53:16.144,-1
"98333801",2017-08-27 08:53:16.150,0
"98333811",2017-08-27 08:53:16.154,-2
"98333821",2017-08-27 08:53:16.160,-3
"98333831",2017-08-27 08:53:16.164,-2
"98333841",2017-08-27 08:53:16.170,0
"98333851",2017-08-27 08:53:16.174,0
"98333861",2017-08-27 08:53:16.180,-1
"98333871",2017-08-27 08:53:16.184,0
"98333881",2017-08-27 08:53:16.190,1
"98333891",2017-08-27 08:53:16.194,2
"98333901",2017-08-27 08:53:16.200,2
"98333911",2017-08-27 08:53:16.204,2
"98333921",2017-08-27 08:53:16.210,3
"98333931",2017-08-27 08:53:16.214,3
"98333941",2017-08-27 08:53:16.220,3
"98333951",2017-08-27 08:53:16.224,4
"98333961",2017-08-27 08:53:16.230,6
"98333971",2017-08-27 08:53:16.234,5
"98333981",2017-08-27 08:53:16.240,6
"98333991",2017-08-27 08:53:16.244,8
"98334001",2017-08-27 08:53:16.250,10
"98334011",2017-08-27 08:53:16.255,12
"98334021",2017-08-27 08:53:16.259,13
"98334031",2017-08-27 08:53:16.265,15
"98334041",2017-08-27 08:53:16.269,18
"98334051",2017-08-27 08:53:16.275,19
"98334061",2017-08-27 08:53:16.279,20
"98334071",2017-08-27 08:53:16.285,20
"98334081",2017-08-27 08:53:16.289,22
"98334091",2017-08-27 08:53:16.295,23
"98334101",2017-08-27 08:53:16.299,25
"98334111",2017-08-27 08:53:16.305,27
"98334121",2017-08-27 08:53:16.309,27
"98334131",2017-08-27 08:53:16.315,26
"98334141",2017-08-27 08:53:16.319,25
"98334151",2017-08-27 08:53:16.325,26
"98334161",2017-08-27 08:53:16.329,24
"98334171",2017-08-27 08:53:16.335,21
"98334181",2017-08-27 08:53:16.339,16
"98334191",2017-08-27 08:53:16.345,10
"98334201",2017-08-27 08:53:16.349,5
"98334211",2017-08-27 08:53:16.355,0
"98334221",2017-08-27 08:53:16.359,-4
"98334231",2017-08-27 08:53:16.365,-8
"98334241",2017-08-27 08:53:16.369,-12
"98334251",2017-08-27 08:53:16.375,-15
"98334261",2017-08-27 08:53:16.380,-17
"98334271",2017-08-27 08:53:16.384,-18
"98334281",2017-08-27 08:53:16.390,-19
"98334291",2017-08-27 08:53:16.394,-19
"98334301",2017-08-27 08:53:16.400,-19
"98334311",2017-08-27 08:53:16.404,-19
"98334321",2017-08-27 08:53:16.410,-20
"98334331",2017-08-27 08:53:16.414,-20
"98334341",2017-08-27 08:53:16.420,-20
"98334351",2017-08-27 08:53:16.424,-20
"98334361",2017-08-27 08:53:16.430,-20
"98334371",2017-08-27 08:53:16.434,-18
"98334381",2017-08-27 08:53:16.440,-16
"98334391",2017-08-27 08:53:16.444,-17
"98334401",2017-08-27 08:53:16.450,-19
"98334411",2017-08-27 08:53:16.454,-20
"98334421",2017-08-27 08:53:16.460,-19
"98334431",2017-08-27 08:53:16.464,-18
"98334441",2017-08-27 08:53:16.470,-16
"98334451",2017-08-27 08:53:16.474,-16
"98334461",2017-08-27 08:53:16.480,-18
"98334471",2017-08-27 08:53:16.484,-17
"98334481",2017-08-27 08:53:16.490,-16
"98334491",2017-08-27 08:53:16.494,-15
"98334501",2017-08-27 08:53:16.500,-14
"98334511",2017-08-27 08:53:16.505,-15
"98334521",2017-08-27 08:53:16.509,-14
"98334531",2017-08-27 08:53:16.515,-13
"98334541",2017-08-27 08:53:16.519,-15
"98334551",2017-08-27 08:53:16.525,-18
"98334561",2017-08-27 08:53:16.529,-17
"98334571",2017-08-27 08:53:16.535,-13
"98334581",2017-08-27 08:53:16.539,-14
"98334591",2017-08-27 08:53:16.545,-15
"98334601",2017-08-27 08:53:16.549,-15
"98334611",2017-08-27 08:53:16.555,-13
"98334621",2017-08-27 08:53:16.559,-12
"98334631",2017-08-27 08:53:16.565,-11
"98334641",2017-08-27 08:53:16.569,-12
"98334651",2017-08-27 08:53:16.575,-13
"98334661",2017-08-27 08:53:16.579,-15
"98334671",2017-08-27 08:53:16.585,-16
"98334681",2017-08-27 08:53:16.589,-13
"98334691",2017-08-27 08:53:16.595,-10
"98334701",2017-08-27 08:53:16.599,-13
"98334711",2017-08-27 08:53:16.605,-15
"98334721",2017-08-27 08:53:16.609,-14
"98334731",2017-08-27 08:53:16.615,-14
"98334741",2017-08-27 08:53:16.619,-14
"98334751",2017-08-27 08:53:16.625,-14
"98334761",2017-08-27 08:53:16.630,-14
"98334771",2017-08-27 08:53:16.634,-12
"98334781",2017-08-27 08:53:16.640,-12
"98334791",2017-08-27 08:53:16.644,-13
"98334801",2017-08-27 08:53:16.650,-13
"98334811",2017-08-27 08:53:16.654,-13
"98334821",2017-08-27 08:53:16.660,-10
"98334831",2017-08-27 08:53:16.664,-8
"98334841",2017-08-27 08:53:16.670,-9
"98334851",2017-08-27 08:53:16.674,-11
"98334861",2017-08-27 08:53:16.680,-9
"98334871",2017-08-27 08:53:16.684,-6
"98334881",2017-08-27 08:53:16.690,-4
"98334891",2017-08-27 08:53:16.694,-6
"98334901",2017-08-27 08:53:16.700,-11
"98334911",2017-08-27 08:53:16.704,-12
"98334921",2017-08-27 08:53:16.710,-13
"98334931",2017-08-27 08:53:16.714,-14
"98334941",2017-08-27 08:53:16.720,-13
"98334951",2017-08-27 08:53:16.724,-9
"98334961",2017-08-27 08:53:16.730,1
"98334971",2017-08-27 08:53:16.734,25
"98334981",2017-08-27 08:53:16.740,61
"98334991",2017-08-27 08:53:16.744,85
"98335001",2017-08-27 08:53:16.750,74
"98335011",2017-08-27 08:53:16.755,32
"98335021",2017-08-27 08:53:16.759,-5
"98335031",2017-08-27 08:53:16.765,-15
"98335041",2017-08-27 08:53:16.769,-6
"98335051",2017-08-27 08:53:16.775,4
"98335061",2017-08-27 08:53:16.779,8
"98335071",2017-08-27 08:53:16.785,7
"98335081",2017-08-27 08:53:16.789,5
"98335091",2017-08-27 08:53:16.795,4
"98335101",2017-08-27 08:53:16.799,2
"98335111",2017-08-27 08:53:16.805,2
"98335121",2017-08-27 08:53:16.809,1
"98335131",2017-08-27 08:53:16.815,1
"98335141",2017-08-27 08:53:16.819,2
"98335151",2017-08-27 08:53:16.825,2
"98335161",2017-08-27 08:53:16.829,0
"98335171",2017-08-27 08:53:16.835,0
"98335181",2017-08-27 08:53:16.839,2
"98335191",2017-08-27 08:53:16.845,4
"98335201",2017-08-27 08:53:16.849,3
"98335211",2017-08-27 08:53:16.855,3
"98335221",2017-08-27 08:53:16.859,3
"98335231",2017-08-27 08:53:16.865,2
"98335241",2017-08-27 08:53:16.869,3
"98335251",2017-08-27 08:53:16.875,5
"98335261",2017-08-27 08:53:16.880,5
"98335271",2017-08-27 08:53:16.884,5
"98335281",2017-08-27 08:53:16.890,8
"98335291",2017-08-27 08:53:16.894,11
"98335301",2017-08-27 08:53:16.900,10
"98335311",2017-08-27 08:53:16.904,8
"98335321",2017-08-27 08:53:16.910,10
"98335331",2017-08-27 08:53:16.914,13
"98335341",2017-08-27 08:53:16.920,15
"98335351",2017-08-27 08:53:16.924,15
"98335361",2017-08-27 08:53:16.930,15
"98335371",2017-08-27 08:53:16.934,18
"98335381",2017-08-27 08:53:16.940,21
"98335391",2017-08-27 08:53:16.944,22
"98335401",2017-08-27 08:53:16.950,24
"98335411",2017-08-27 08:53:16.954,24
"98335421",2017-08-27 08:53:16.960,24
"98335431",2017-08-27 08:53:16.964,27
"98335441",2017-08-27 08:53:16.970,31
"98335451",2017-08-27 08:53:16.974,31
"98335461",2017-08-27 08:53:16.980,30
"98335471",2017-08-27 08:53:16.984,27
"98335481",2017-08-27 08:53:16.990,26
"98335491",2017-08-27 08:53:16.994,24
"98335501",2017-08-27 08:53:17.000,22
"98335511",2017-08-27 08:53:17.005,20
"98335521",2017-08-27 08:53:17.009,15
"98335531",2017-08-27 08:53:17.015,8
"98335541",2017-08-27 08:53:17.019,3
"98335551",2017-08-27 08:53:17.025,0
"98335561",2017-08-27 08:53:17.029,-2
"98335571",2017-08-27 08:53:17.035,-6
"98335581",2017-08-27 08:53:17.039,-9
"98335591",2017-08-27 08:53:17.045,-13
"98335601",2017-08-27 08:53:17.049,-14
"98335611",2017-08-27 08:53:17.055,-15
"98335621",2017-08-27 08:53:17.059,-15
"98335631",2017-08-27 08:53:17.065,-17
"98335641",2017-08-27 08:53:17.069,-20
"98335651",2017-08-27 08:53:17.075,-19
"98335661",2017-08-27 08:53:17.079,-15
"98335671",2017-08-27 08:53:17.085,-14
"98335681",2017-08-27 08:53:17.089,-15
"98335691",2017-08-27 08:53:17.095,-15
"98335701",2017-08-27 08:53:17.099,-17
"98335711",2017-08-27 08:53:17.105,-16
"98335721",2017-08-27 08:53:17.109,-14
"98335731",2017-08-27 08:53:17.115,-14
"98335741",2017-08-27 08:53:17.119,-15
"98335751",2017-08-27 08:53:17.125,-14
"98335761",2017-08-27 08:53:17.130,-13
"98335771",2017-08-27 08:53:17.134,-12
"98335781",2017-08-27 08:53:17.140,-12
"98335791",2017-08-27 08:53:17.144,-14
"98335801",2017-08-27 08:53:17.150,-13
"98335811",2017-08-27 08:53:17.154,-13
"98335821",2017-08-27 08:53:17.160,-13
"98335831",2017-08-27 08:53:17.164,-12
"98335841",2017-08-27 08:53:17.170,-13
"98335851",2017-08-27 08:53:17.174,-14
"98335861",2017-08-27 08:53:17.180,-14
"98335871",2017-08-27 08:53:17.184,-13
"98335881",2017-08-27 08:53:17.190,-12
"98335891",2017-08-27 08:53:17.194,-9
"98335901",2017-08-27 08:53:17.200,-9
"98335911",2017-08-27 08:53:17.204,-10
"98335921",2017-08-27 08:53:17.210,-12
"98335931",2017-08-27 08:53:17.214,-13
"98335941",2017-08-27 08:53:17.220,-13
"98335951",2017-08-27 08:53:17.224,-11
"98335961",2017-08-27 08:53:17.230,-11
"98335971",2017-08-27 08:53:17.234,-11
"98335981",2017-08-27 08:53:17.240,-12
"98335991",2017-08-27 08:53:17.244,-13
"98336001",2017-08-27 08:53:17.250,-13
"98336011",2017-08-27 08:53:17.255,-11
"98336021",2017-08-27 08:53:17.259,-9
"98336031",2017-08-27 08:53:17.265,-9
"98336041",2017-08-27 08:53:17.269,-10
"98336051",2017-08-27 08:53:17.275,-10
"98336061",2017-08-27 08:53:17.279,-10
"98336071",2017-08-27 08:53:17.285,-12
"98336081",2017-08-27 08:53:17.289,-12
"98336091",2017-08-27 08:53:17.295,-11
"98336101",2017-08-27 08:53:17.299,-12
"98336111",2017-08-27 08:53:17.305,-13
"98336121",2017-08-27 08:53:17.309,-14
"98336131",2017-08-27 08:53:17.315,-14
"98336141",2017-08-27 08:53:17.319,-12
"98336151",2017-08-27 08:53:17.325,-10
"98336161",2017-08-27 08:53:17.329,-9
"98336171",2017-08-27 08:53:17.335,-8
"98336181",2017-08-27 08:53:17.339,-7
"98336191",2017-08-27 08:53:17.345,-7
"98336201",2017-08-27 08:53:17.349,-3
"98336211",2017-08-27 08:53:17.355,-1
"98336221",2017-08-27 08:53:17.359,-4
"98336231",2017-08-27 08:53:17.365,-7
"98336241",2017-08-27 08:53:17.369,-8
"98336251",2017-08-27 08:53:17.375,-11
"98336261",2017-08-27 08:53:17.380,-12
"98336271",2017-08-27 08:53:17.384,-12
"98336281",2017-08-27 08:53:17.390,-10
"98336291",2017-08-27 08:53:17.394,-6
"98336301",2017-08-27 08:53:17.400,10
"98336311",2017-08-27 08:53:17.404,43
"98336321",2017-08-27 08:53:17.410,79
"98336331",2017-08-27 08:53:17.414,88
"98336341",2017-08-27 08:53:17.420,59
"98336351",2017-08-27 08:53:17.424,14
"98336361",2017-08-27 08:53:17.430,-10
"98336371",2017-08-27 08:53:17.434,-9
"98336381",2017-08-27 08:53:17.440,3
"98336391",2017-08-27 08:53:17.444,11
"98336401",2017-08-27 08:53:17.450,10
"98336411",2017-08-27 08:53:17.454,8
"98336421",2017-08-27 08:53:17.460,9
"98336431",2017-08-27 08:53:17.464,7
"98336441",2017-08-27 08:53:17.470,5
"98336451",2017-08-27 08:53:17.474,5
"98336461",2017-08-27 08:53:17.480,4
"98336471",2017-08-27 08:53:17.484,3
"98336481",2017-08-27 08:53:17.490,3
"98336491",2017-08-27 08:53:17.494,4
"98336501",2017-08-27 08:53:17.500,3
"98336511",2017-08-27 08:53:17.505,2
"98336521",2017-08-27 08:53:17.509,3
"98336531",2017-08-27 08:53:17.515,3
"98336541",2017-08-27 08:53:17.519,3
"98336551",2017-08-27 08:53:17.525,5
"98336561",2017-08-27 08:53:17.529,4
"98336571",2017-08-27 08:53:17.535,2
"98336581",2017-08-27 08:53:17.539,2
"98336591",2017-08-27 08:53:17.545,7
"98336601",2017-08-27 08:53:17.549,10
"98336611",2017-08-27 08:53:17.555,10
"98336621",2017-08-27 08:53:17.559,10
"98336631",2017-08-27 08:53:17.565,11
"98336641",2017-08-27 08:53:17.569,12
"98336651",2017-08-27 08:53:17.575,11
"98336661",2017-08-27 08:53:17.579,11
"98336671",2017-08-27 08:53:17.585,14
"98336681",2017-08-27 08:53:17.589,16
"98336691",2017-08-27 08:53:17.595,16
"98336701",2017-08-27 08:53:17.599,20
"98336711",2017-08-27 08:53:17.605,23
"98336721",2017-08-27 08:53:17.609,22
"98336731",2017-08-27 08:53:17.615,22
"98336741",2017-08-27 08:53:17.619,25
"98336751",2017-08-27 08:53:17.625,28
"98336761",2017-08-27 08:53:17.630,27
"98336771",2017-08-27 08:53:17.634,28
"98336781",2017-08-27 08:53:17.640,32
"98336791",2017-08-27 08:53:17.644,31
"98336801",2017-08-27 08:53:17.650,29
"98336811",2017-08-27 08:53:17.654,29
"98336821",2017-08-27 08:53:17.660,29
"98336831",2017-08-27 08:53:17.664,27
"98336841",2017-08-27 08:53:17.670,24
"98336851",2017-08-27 08:53:17.674,18
"98336861",2017-08-27 08:53:17.680,13
"98336871",2017-08-27 08:53:17.684,7
"98336881",2017-08-27 08:53:17.690,5
"98336891",2017-08-27 08:53:17.694,1
"98336901",2017-08-27 08:53:17.700,-3
"98336911",2017-08-27 08:53:17.704,-7
"98336921",2017-08-27 08:53:17.710,-10
"98336931",2017-08-27 08:53:17.714,-13
"98336941",2017-08-27 08:53:17.720,-13
"98336951",2017-08-27 08:53:17.724,-13
"98336961",2017-08-27 08:53:17.730,-14
"98336971",2017-08-27 08:53:17.734,-15
"98336981",2017-08-27 08:53:17.740,-16
"98336991",2017-08-27 08:53:17.744,-16
"98337001",2017-08-27 08:53:17.750,-16
"98337011",2017-08-27 08:53:17.755,-16
"98337021",2017-08-27 08:53:17.759,-16
"98337031",2017-08-27 08:53:17.765,-16
"98337041",2017-08-27 08:53:17.769,-15
"98337051",2017-08-27 08:53:17.775,-14
"98337061",2017-08-27 08:53:17.779,-14
"98337071",2017-08-27 08:53:17.785,-16
"98337081",2017-08-27 08:53:17.789,-17
"98337091",2017-08-27 08:53:17.795,-16
"98337101",2017-08-27 08:53:17.799,-14
"98337111",2017-08-27 08:53:17.805,-12
"98337121",2017-08-27 08:53:17.809,-12
"98337131",2017-08-27 08:53:17.815,-14
"98337141",2017-08-27 08:53:17.819,-15
"98337151",2017-08-27 08:53:17.825,-13
"98337161",2017-08-27 08:53:17.829,-13
"98337171",2017-08-27 08:53:17.835,-13
"98337181",2017-08-27 08:53:17.839,-12
"98337191",2017-08-27 08:53:17.845,-12
"98337201",2017-08-27 08:53:17.849,-12
"98337211",2017-08-27 08:53:17.855,-10
"98337221",2017-08-27 08:53:17.859,-11
"98337231",2017-08-27 08:53:17.865,-13
"98337241",2017-08-27 08:53:17.869,-14
"98337251",2017-08-27 08:53:17.875,-13
"98337261",2017-08-27 08:53:17.880,-12
"98337271",2017-08-27 08:53:17.884,-10
"98337281",2017-08-27 08:53:17.890,-9
"98337291",2017-08-27 08:53:17.894,-12
"98337301",2017-08-27 08:53:17.900,-14
"98337311",2017-08-27 08:53:17.904,-13
"98337321",2017-08-27 08:53:17.910,-13
"98337331",2017-08-27 08:53:17.914,-13
"98337341",2017-08-27 08:53:17.920,-12
"98337351",2017-08-27 08:53:17.924,-10
"98337361",2017-08-27 08:53:17.930,-9
"98337371",2017-08-27 08:53:17.934,-11
"98337381",2017-08-27 08:53:17.940,-14
"98337391",2017-08-27 08:53:17.944,-12
"98337401",2017-08-27 08:53:17.950,-11
"98337411",2017-08-27 08:53:17.954,-12
"98337421",2017-08-27 08:53:17.960,-12
"98337431",2017-08-27 08:53:17.964,-12
"98337441",2017-08-27 08:53:17.970,-13
"98337451",2017-08-27 08:53:17.974,-13
"98337461",2017-08-27 08:53:17.980,-12
"98337471",2017-08-27 08:53:17.984,-13
"98337481",2017-08-27 08:53:17.990,-12
"98337491",2017-08-27 08:53:17.994,-9
"98337501",2017-08-27 08:53:18.000,-8
"98337511",2017-08-27 08:53:18.005,-8
"98337521",2017-08-27 08:53:18.009,-6
"98337531",2017-08-27 08:53:18.015,-2
"98337541",2017-08-27 08:53:18.019,-3
"98337551",2017-08-27 08:53:18.025,-5
"98337561",2017-08-27 08:53:18.029,-5
"98337571",2017-08-27 08:53:18.035,-7
"98337581",2017-08-27 08:53:18.039,-10
"98337591",2017-08-27 08:53:18.045,-11
"98337601",2017-08-27 08:53:18.049,-11
"98337611",2017-08-27 08:53:18.055,-9
"98337621",2017-08-27 08:53:18.059,-5
"98337631",2017-08-27 08:53:18.065,0
"98337641",2017-08-27 08:53:18.069,21
"98337651",2017-08-27 08:53:18.075,56
"98337661",2017-08-27 08:53:18.079,84
"98337671",2017-08-27 08:53:18.085,80
"98337681",2017-08-27 08:53:18.089,43
"98337691",2017-08-27 08:53:18.095,1
"98337701",2017-08-27 08:53:18.099,-11
"98337711",2017-08-27 08:53:18.105,-2
"98337721",2017-08-27 08:53:18.109,7
"98337731",2017-08-27 08:53:18.115,8
"98337741",2017-08-27 08:53:18.119,8
"98337751",2017-08-27 08:53:18.125,10
"98337761",2017-08-27 08:53:18.130,10
"98337771",2017-08-27 08:53:18.134,7
"98337781",2017-08-27 08:53:18.140,6
"98337791",2017-08-27 08:53:18.144,5
"98337801",2017-08-27 08:53:18.150,4
"98337811",2017-08-27 08:53:18.154,4
"98337821",2017-08-27 08:53:18.160,3
"98337831",2017-08-27 08:53:18.164,0
"98337841",2017-08-27 08:53:18.170,2
"98337851",2017-08-27 08:53:18.174,5
"98337861",2017-08-27 08:53:18.180,6
"98337871",2017-08-27 08:53:18.184,6
"98337881",2017-08-27 08:53:18.190,6
"98337891",2017-08-27 08:53:18.194,6
"98337901",2017-08-27 08:53:18.200,6
"98337911",2017-08-27 08:53:18.204,7
"98337921",2017-08-27 08:53:18.210,9
"98337931",2017-08-27 08:53:18.214,9
"98337941",2017-08-27 08:53:18.220,10
"98337951",2017-08-27 08:53:18.224,11
"98337961",2017-08-27 08:53:18.230,11
"98337971",2017-08-27 08:53:18.234,12
"98337981",2017-08-27 08:53:18.240,14
"98337991",2017-08-27 08:53:18.244,15
"98338001",2017-08-27 08:53:18.250,14
"98338011",2017-08-27 08:53:18.255,15
"98338021",2017-08-27 08:53:18.259,17
"98338031",2017-08-27 08:53:18.265,18
"98338041",2017-08-27 08:53:18.269,22
"98338051",2017-08-27 08:53:18.275,25
"98338061",2017-08-27 08:53:18.279,25
"98338071",2017-08-27 08:53:18.285,25
"98338081",2017-08-27 08:53:18.289,27
"98338091",2017-08-27 08:53:18.295,27
"98338101",2017-08-27 08:53:18.299,29
"98338111",2017-08-27 08:53:18.305,31
"98338121",2017-08-27 08:53:18.309,30
"98338131",2017-08-27 08:53:18.315,31
"98338141",2017-08-27 08:53:18.319,33
"98338151",2017-08-27 08:53:18.325,32
"98338161",2017-08-27 08:53:18.329,30
"98338171",2017-08-27 08:53:18.335,27
"98338181",2017-08-27 08:53:18.339,23
"98338191",2017-08-27 08:53:18.345,19
"98338201",2017-08-27 08:53:18.349,16
"98338211",2017-08-27 08:53:18.355,11
"98338221",2017-08-27 08:53:18.359,4
"98338231",2017-08-27 08:53:18.365,-1
"98338241",2017-08-27 08:53:18.369,-2
"98338251",2017-08-27 08:53:18.375,-5
"98338261",2017-08-27 08:53:18.380,-11
"98338271",2017-08-27 08:53:18.384,-14
"98338281",2017-08-27 08:53:18.390,-12
"98338291",2017-08-27 08:53:18.394,-11
"98338301",2017-08-27 08:53:18.400,-13
"98338311",2017-08-27 08:53:18.404,-13
"98338321",2017-08-27 08:53:18.410,-13
"98338331",2017-08-27 08:53:18.414,-12
"98338341",2017-08-27 08:53:18.420,-13
"98338351",2017-08-27 08:53:18.424,-15
"98338361",2017-08-27 08:53:18.430,-14
"98338371",2017-08-27 08:53:18.434,-11
"98338381",2017-08-27 08:53:18.440,-11
"98338391",2017-08-27 08:53:18.444,-10
"98338401",2017-08-27 08:53:18.450,-10
"98338411",2017-08-27 08:53:18.454,-10
"98338421",2017-08-27 08:53:18.460,-13
"98338431",2017-08-27 08:53:18.464,-14
"98338441",2017-08-27 08:53:18.470,-14
"98338451",2017-08-27 08:53:18.474,-13
"98338461",2017-08-27 08:53:18.480,-12
"98338471",2017-08-27 08:53:18.484,-10
"98338481",2017-08-27 08:53:18.490,-8
"98338491",2017-08-27 08:53:18.494,-9
"98338501",2017-08-27 08:53:18.500,-11
"98338511",2017-08-27 08:53:18.505,-11
"98338521",2017-08-27 08:53:18.509,-11
"98338531",2017-08-27 08:53:18.515,-10
"98338541",2017-08-27 08:53:18.519,-10
"98338551",2017-08-27 08:53:18.525,-9
"98338561",2017-08-27 08:53:18.529,-10
"98338571",2017-08-27 08:53:18.535,-11
"98338581",2017-08-27 08:53:18.539,-10
"98338591",2017-08-27 08:53:18.545,-10
"98338601",2017-08-27 08:53:18.549,-9
"98338611",2017-08-27 08:53:18.555,-8
"98338621",2017-08-27 08:53:18.559,-9
"98338631",2017-08-27 08:53:18.565,-10
"98338641",2017-08-27 08:53:18.569,-10
"98338651",2017-08-27 08:53:18.575,-10
"98338661",2017-08-27 08:53:18.579,-9
"98338671",2017-08-27 08:53:18.585,-7
"98338681",2017-08-27 08:53:18.589,-8
"98338691",2017-08-27 08:53:18.595,-7
"98338701",2017-08-27 08:53:18.599,-7
"98338711",2017-08-27 08:53:18.605,-10
"98338721",2017-08-27 08:53:18.609,-11
"98338731",2017-08-27 08:53:18.615,-10
"98338741",2017-08-27 08:53:18.619,-11
"98338751",2017-08-27 08:53:18.625,-12
"98338761",2017-08-27 08:53:18.630,-10
"98338771",2017-08-27 08:53:18.634,-9
"98338781",2017-08-27 08:53:18.640,-11
"98338791",2017-08-27 08:53:18.644,-12
"98338801",2017-08-27 08:53:18.650,-11
"98338811",2017-08-27 08:53:18.654,-9
"98338821",2017-08-27 08:53:18.660,-8
"98338831",2017-08-27 08:53:18.664,-5
"98338841",2017-08-27 08:53:18.670,-5
"98338851",2017-08-27 08:53:18.674,-6
"98338861",2017-08-27 08:53:18.680,-5
"98338871",2017-08-27 08:53:18.684,-3
"98338881",2017-08-27 08:53:18.690,-2
"98338891",2017-08-27 08:53:18.694,-2
"98338901",2017-08-27 08:53:18.700,-4
"98338911",2017-08-27 08:53:18.704,-7
"98338921",2017-08-27 08:53:18.710,-8
"98338931",2017-08-27 08:53:18.714,-7
"98338941",2017-08-27 08:53:18.720,-8
"98338951",2017-08-27 08:53:18.724,-8
"98338961",2017-08-27 08:53:18.730,-4
"98338971",2017-08-27 08:53:18.734,5
"98338981",2017-08-27 08:53:18.740,30
"98338991",2017-08-27 08:53:18.744,67
"98339001",2017-08-27 08:53:18.750,93
"98339011",2017-08-27 08:53:18.755,82
"98339021",2017-08-27 08:53:18.759,38
"98339031",2017-08-27 08:53:18.765,-1
"98339041",2017-08-27 08:53:18.769,-8
"98339051",2017-08-27 08:53:18.775,0
"98339061",2017-08-27 08:53:18.779,9
"98339071",2017-08-27 08:53:18.785,12
"98339081",2017-08-27 08:53:18.789,11
"98339091",2017-08-27 08:53:18.795,10
"98339101",2017-08-27 08:53:18.799,9
"98339111",2017-08-27 08:53:18.805,8
"98339121",2017-08-27 08:53:18.809,8
"98339131",2017-08-27 08:53:18.815,6
"98339141",2017-08-27 08:53:18.819,4
"98339151",2017-08-27 08:53:18.825,2
"98339161",2017-08-27 08:53:18.829,1
"98339171",2017-08-27 08:53:18.835,3
"98339181",2017-08-27 08:53:18.839,6
"98339191",2017-08-27 08:53:18.845,8
"98339201",2017-08-27 08:53:18.849,8
"98339211",2017-08-27 08:53:18.855,5
"98339221",2017-08-27 08:53:18.859,5
"98339231",2017-08-27 08:53:18.865,8
"98339241",2017-08-27 08:53:18.869,8
"98339251",2017-08-27 08:53:18.875,6
"98339261",2017-08-27 08:53:18.880,7
"98339271",2017-08-27 08:53:18.884,9
"98339281",2017-08-27 08:53:18.890,9
"98339291",2017-08-27 08:53:18.894,11
"98339301",2017-08-27 08:53:18.900,11
"98339311",2017-08-27 08:53:18.904,13
"98339321",2017-08-27 08:53:18.910,15
"98339331",2017-08-27 08:53:18.914,15
"98339341",2017-08-27 08:53:18.920,16
"98339351",2017-08-27 08:53:18.924,19
"98339361",2017-08-27 08:53:18.930,20
"98339371",2017-08-27 08:53:18.934,21
"98339381",2017-08-27 08:53:18.940,24
"98339391",2017-08-27 08:53:18.944,26
"98339401",2017-08-27 08:53:18.950,26
"98339411",2017-08-27 08:53:18.954,27
"98339421",2017-08-27 08:53:18.960,28
"98339431",2017-08-27 08:53:18.964,29
"98339441",2017-08-27 08:53:18.970,29
"98339451",2017-08-27 08:53:18.974,30
"98339461",2017-08-27 08:53:18.980,33
"98339471",2017-08-27 08:53:18.984,35
"98339481",2017-08-27 08:53:18.990,33
"98339491",2017-08-27 08:53:18.994,30
"98339501",2017-08-27 08:53:19.000,28
"98339511",2017-08-27 08:53:19.005,26
"98339521",2017-08-27 08:53:19.009,22
"98339531",2017-08-27 08:53:19.015,18
"98339541",2017-08-27 08:53:19.019,14
"98339551",2017-08-27 08:53:19.025,8
"98339561",2017-08-27 08:53:19.029,2
"98339571",2017-08-27 08:53:19.035,-3
"98339581",2017-08-27 08:53:19.039,-6
"98339591",2017-08-27 08:53:19.045,-7
"98339601",2017-08-27 08:53:19.049,-9
"98339611",2017-08-27 08:53:19.055,-12
"98339621",2017-08-27 08:53:19.059,-14
"98339631",2017-08-27 08:53:19.065,-13
"98339641",2017-08-27 08:53:19.069,-12
"98339651",2017-08-27 08:53:19.075,-13
"98339661",2017-08-27 08:53:19.079,-13
"98339671",2017-08-27 08:53:19.085,-13
"98339681",2017-08-27 08:53:19.089,-14
"98339691",2017-08-27 08:53:19.095,-14
"98339701",2017-08-27 08:53:19.099,-15
"98339711",2017-08-27 08:53:19.105,-15
"98339721",2017-08-27 08:53:19.109,-14
"98339731",2017-08-27 08:53:19.115,-13
"98339741",2017-08-27 08:53:19.119,-13
"98339751",2017-08-27 08:53:19.125,-13
"98339761",2017-08-27 08:53:19.130,-12
"98339771",2017-08-27 08:53:19.134,-13
"98339781",2017-08-27 08:53:19.140,-12
"98339791",2017-08-27 08:53:19.144,-11
"98339801",2017-08-27 08:53:19.150,-12
"98339811",2017-08-27 08:53:19.154,-11
"98339821",2017-08-27 08:53:19.160,-11
"98339831",2017-08-27 08:53:19.164,-11
"98339841",2017-08-27 08:53:19.170,-11
"98339851",2017-08-27 08:53:19.174,-10
"98339861",2017-08-27 08:53:19.180,-11
"98339871",2017-08-27 08:53:19.184,-11
"98339881",2017-08-27 08:53:19.190,-10
"98339891",2017-08-27 08:53:19.194,-12
"98339901",2017-08-27 08:53:19.200,-13
"98339911",2017-08-27 08:53:19.204,-12
"98339921",2017-08-27 08:53:19.210,-11
"98339931",2017-08-27 08:53:19.214,-11
"98339941",2017-08-27 08:53:19.220,-11
"98339951",2017-08-27 08:53:19.224,-10
"98339961",2017-08-27 08:53:19.230,-12
"98339971",2017-08-27 08:53:19.234,-13
"98339981",2017-08-27 08:53:19.240,-13
"98339991",2017-08-27 08:53:19.244,-11
"98340001",2017-08-27 08:53:19.250,-10
"98340011",2017-08-27 08:53:19.255,-10
"98340021",2017-08-27 08:53:19.259,-10
"98340031",2017-08-27 08:53:19.265,-10
"98340041",2017-08-27 08:53:19.269,-10
"98340051",2017-08-27 08:53:19.275,-9
"98340061",2017-08-27 08:53:19.279,-9
"98340071",2017-08-27 08:53:19.285,-11
"98340081",2017-08-27 08:53:19.289,-14
"98340091",2017-08-27 08:53:19.295,-12
"98340101",2017-08-27 08:53:19.299,-10
"98340111",2017-08-27 08:53:19.305,-10
"98340121",2017-08-27 08:53:19.309,-11
"98340131",2017-08-27 08:53:19.315,-11
"98340141",2017-08-27 08:53:19.319,-11
"98340151",2017-08-27 08:53:19.325,-12
"98340161",2017-08-27 08:53:19.329,-10
"98340171",2017-08-27 08:53:19.335,-7
"98340181",2017-08-27 08:53:19.339,-7
"98340191",2017-08-27 08:53:19.345,-6
"98340201",2017-08-27 08:53:19.349,-4
"98340211",2017-08-27 08:53:19.355,-3
"98340221",2017-08-27 08:53:19.359,-4
"98340231",2017-08-27 08:53:19.365,-3
"98340241",2017-08-27 08:53:19.369,-5
"98340251",2017-08-27 08:53:19.375,-10
"98340261",2017-08-27 08:53:19.380,-11
"98340271",2017-08-27 08:53:19.384,-9
"98340281",2017-08-27 08:53:19.390,-7
"98340291",2017-08-27 08:53:19.394,-7
"98340301",2017-08-27 08:53:19.400,-4
"98340311",2017-08-27 08:53:19.404,5
"98340321",2017-08-27 08:53:19.410,31
"98340331",2017-08-27 08:53:19.414,70
"98340341",2017-08-27 08:53:19.420,94
"98340351",2017-08-27 08:53:19.424,80
"98340361",2017-08-27 08:53:19.430,34
"98340371",2017-08-27 08:53:19.434,-7
"98340381",2017-08-27 08:53:19.440,-15
"98340391",2017-08-27 08:53:19.444,-2
"98340401",2017-08-27 08:53:19.450,9
"98340411",2017-08-27 08:53:19.454,10
"98340421",2017-08-27 08:53:19.460,8
"98340431",2017-08-27 08:53:19.464,7
"98340441",2017-08-27 08:53:19.470,6
"98340451",2017-08-27 08:53:19.474,3
"98340461",2017-08-27 08:53:19.480,2
"98340471",2017-08-27 08:53:19.484,4
"98340481",2017-08-27 08:53:19.490,5
"98340491",2017-08-27 08:53:19.494,4
"98340501",2017-08-27 08:53:19.500,2
"98340511",2017-08-27 08:53:19.505,3
"98340521",2017-08-27 08:53:19.509,5
"98340531",2017-08-27 08:53:19.515,7
"98340541",2017-08-27 08:53:19.519,8
"98340551",2017-08-27 08:53:19.525,6
"98340561",2017-08-27 08:53:19.529,4
"98340571",2017-08-27 08:53:19.535,6
"98340581",2017-08-27 08:53:19.539,7
"98340591",2017-08-27 08:53:19.545,5
"98340601",2017-08-27 08:53:19.549,5
"98340611",2017-08-27 08:53:19.555,8
"98340621",2017-08-27 08:53:19.559,10
"98340631",2017-08-27 08:53:19.565,11
"98340641",2017-08-27 08:53:19.569,11
"98340651",2017-08-27 08:53:19.575,10
"98340661",2017-08-27 08:53:19.579,11
"98340671",2017-08-27 08:53:19.585,13
"98340681",2017-08-27 08:53:19.589,16
"98340691",2017-08-27 08:53:19.595,18
"98340701",2017-08-27 08:53:19.599,18
"98340711",2017-08-27 08:53:19.605,18
"98340721",2017-08-27 08:53:19.609,21
"98340731",2017-08-27 08:53:19.615,24
"98340741",2017-08-27 08:53:19.619,26
"98340751",2017-08-27 08:53:19.625,27
"98340761",2017-08-27 08:53:19.630,27
"98340771",2017-08-27 08:53:19.634,28
"98340781",2017-08-27 08:53:19.640,30
"98340791",2017-08-27 08:53:19.644,30
"98340801",2017-08-27 08:53:19.650,30
"98340811",2017-08-27 08:53:19.654,32
"98340821",2017-08-27 08:53:19.660,32
"98340831",2017-08-27 08:53:19.664,31
"98340841",2017-08-27 08:53:19.670,28
"98340851",2017-08-27 08:53:19.674,23
"98340861",2017-08-27 08:53:19.680,19
"98340871",2017-08-27 08:53:19.684,15
"98340881",2017-08-27 08:53:19.690,10
"98340891",2017-08-27 08:53:19.694,5
"98340901",2017-08-27 08:53:19.700,0
"98340911",2017-08-27 08:53:19.704,-5
"98340921",2017-08-27 08:53:19.710,-7
"98340931",2017-08-27 08:53:19.714,-9
"98340941",2017-08-27 08:53:19.720,-12
"98340951",2017-08-27 08:53:19.724,-15
"98340961",2017-08-27 08:53:19.730,-14
"98340971",2017-08-27 08:53:19.734,-14
"98340981",2017-08-27 08:53:19.740,-16
"98340991",2017-08-27 08:53:19.744,-17
"98341001",2017-08-27 08:53:19.750,-19
"98341011",2017-08-27 08:53:19.755,-19
"98341021",2017-08-27 08:53:19.759,-18
"98341031",2017-08-27 08:53:19.765,-17
"98341041",2017-08-27 08:53:19.769,-17
"98341051",2017-08-27 08:53:19.775,-17
"98341061",2017-08-27 08:53:19.779,-17
"98341071",2017-08-27 08:53:19.785,-17
"98341081",2017-08-27 08:53:19.789,-15
"98341091",2017-08-27 08:53:19.795,-13
"98341101",2017-08-27 08:53:19.799,-14
"98341111",2017-08-27 08:53:19.805,-14
"98341121",2017-08-27 08:53:19.809,-12
"98341131",2017-08-27 08:53:19.815,-12
"98341141",2017-08-27 08:53:19.819,-13
"98341151",2017-08-27 08:53:19.825,-13
"98341161",2017-08-27 08:53:19.829,-14
"98341171",2017-08-27 08:53:19.835,-13
"98341181",2017-08-27 08:53:19.839,-12
"98341191",2017-08-27 08:53:19.845,-11
"98341201",2017-08-27 08:53:19.849,-12
"98341211",2017-08-27 08:53:19.855,-13
"98341221",2017-08-27 08:53:19.859,-12
"98341231",2017-08-27 08:53:19.865,-10
"98341241",2017-08-27 08:53:19.869,-10
"98341251",2017-08-27 08:53:19.875,-11
"98341261",2017-08-27 08:53:19.880,-11
"98341271",2017-08-27 08:53:19.884,-10
"98341281",2017-08-27 08:53:19.890,-11
"98341291",2017-08-27 08:53:19.894,-13
"98341301",2017-08-27 08:53:19.900,-12
"98341311",2017-08-27 08:53:19.904,-12
"98341321",2017-08-27 08:53:19.910,-11
"98341331",2017-08-27 08:53:19.914,-11
"98341341",2017-08-27 08:53:19.920,-11
"98341351",2017-08-27 08:53:19.924,-11
"98341361",2017-08-27 08:53:19.930,-12
"98341371",2017-08-27 08:53:19.934,-11
"98341381",2017-08-27 08:53:19.940,-13
"98341391",2017-08-27 08:53:19.944,-14
"98341401",2017-08-27 08:53:19.950,-14
"98341411",2017-08-27 08:53:19.954,-12
"98341421",2017-08-27 08:53:19.960,-10
"98341431",2017-08-27 08:53:19.964,-11
"98341441",2017-08-27 08:53:19.970,-12
"98341451",2017-08-27 08:53:19.974,-12
"98341461",2017-08-27 08:53:19.980,-14
"98341471",2017-08-27 08:53:19.984,-15
"98341481",2017-08-27 08:53:19.990,-15
"98341491",2017-08-27 08:53:19.994,-13
"98341501",2017-08-27 08:53:20.000,-13
"98341511",2017-08-27 08:53:20.005,-10
"98341521",2017-08-27 08:53:20.009,-9
"98341531",2017-08-27 08:53:20.015,-9
"98341541",2017-08-27 08:53:20.019,-10
"98341551",2017-08-27 08:53:20.025,-7
"98341561",2017-08-27 08:53:20.029,-4
"98341571",2017-08-27 08:53:20.035,-5
"98341581",2017-08-27 08:53:20.039,-9
"98341591",2017-08-27 08:53:20.045,-10
"98341601",2017-08-27 08:53:20.049,-9
"98341611",2017-08-27 08:53:20.055,-8
"98341621",2017-08-27 08:53:20.059,-10
"98341631",2017-08-27 08:53:20.065,-11
"98341641",2017-08-27 08:53:20.069,-5
"98341651",2017-08-27 08:53:20.075,15
"98341661",2017-08-27 08:53:20.079,50
"98341671",2017-08-27 08:53:20.085,80
"98341681",2017-08-27 08:53:20.089,84
"98341691",2017-08-27 08:53:20.095,51
"98341701",2017-08-27 08:53:20.099,5
"98341711",2017-08-27 08:53:20.105,-17
"98341721",2017-08-27 08:53:20.109,-10
"98341731",2017-08-27 08:53:20.115,0
"98341741",2017-08-27 08:53:20.119,5
"98341751",2017-08-27 08:53:20.125,4
"98341761",2017-08-27 08:53:20.130,3
"98341771",2017-08-27 08:53:20.134,3
"98341781",2017-08-27 08:53:20.140,4
"98341791",2017-08-27 08:53:20.144,4
"98341801",2017-08-27 08:53:20.150,1
"98341811",2017-08-27 08:53:20.154,-1
"98341821",2017-08-27 08:53:20.160,-1
"98341831",2017-08-27 08:53:20.164,-1
"98341841",2017-08-27 08:53:20.170,0
"98341851",2017-08-27 08:53:20.174,0
"98341861",2017-08-27 08:53:20.180,1
"98341871",2017-08-27 08:53:20.184,1
"98341881",2017-08-27 08:53:20.190,1
"98341891",2017-08-27 08:53:20.194,2
"98341901",2017-08-27 08:53:20.200,3
"98341911",2017-08-27 08:53:20.204,4
"98341921",2017-08-27 08:53:20.210,4
"98341931",2017-08-27 08:53:20.214,4
"98341941",2017-08-27 08:53:20.220,5
"98341951",2017-08-27 08:53:20.224,5
"98341961",2017-08-27 08:53:20.230,4
"98341971",2017-08-27 08:53:20.234,4
"98341981",2017-08-27 08:53:20.240,8
"98341991",2017-08-27 08:53:20.244,10
"98342001",2017-08-27 08:53:20.250,10
"98342011",2017-08-27 08:53:20.255,10
"98342021",2017-08-27 08:53:20.259,13
"98342031",2017-08-27 08:53:20.265,14
"98342041",2017-08-27 08:53:20.269,15
"98342051",2017-08-27 08:53:20.275,16
"98342061",2017-08-27 08:53:20.279,18
"98342071",2017-08-27 08:53:20.285,20
"98342081",2017-08-27 08:53:20.289,22
"98342091",2017-08-27 08:53:20.295,24
"98342101",2017-08-27 08:53:20.299,26
"98342111",2017-08-27 08:53:20.305,25
"98342121",2017-08-27 08:53:20.309,24
"98342131",2017-08-27 08:53:20.315,26
"98342141",2017-08-27 08:53:20.319,28
"98342151",2017-08-27 08:53:20.325,29
"98342161",2017-08-27 08:53:20.329,28
"98342171",2017-08-27 08:53:20.335,26
"98342181",2017-08-27 08:53:20.339,24
"98342191",2017-08-27 08:53:20.345,21
"98342201",2017-08-27 08:53:20.349,17
"98342211",2017-08-27 08:53:20.355,12
"98342221",2017-08-27 08:53:20.359,6
"98342231",2017-08-27 08:53:20.365,0
"98342241",2017-08-27 08:53:20.369,-3
"98342251",2017-08-27 08:53:20.375,-6
"98342261",2017-08-27 08:53:20.380,-10
"98342271",2017-08-27 08:53:20.384,-14
"98342281",2017-08-27 08:53:20.390,-16
"98342291",2017-08-27 08:53:20.394,-18
"98342301",2017-08-27 08:53:20.400,-17
"98342311",2017-08-27 08:53:20.404,-18
"98342321",2017-08-27 08:53:20.410,-19
"98342331",2017-08-27 08:53:20.414,-20
"98342341",2017-08-27 08:53:20.420,-20
"98342351",2017-08-27 08:53:20.424,-18
"98342361",2017-08-27 08:53:20.430,-17
"98342371",2017-08-27 08:53:20.434,-16
"98342381",2017-08-27 08:53:20.440,-18
"98342391",2017-08-27 08:53:20.444,-19
"98342401",2017-08-27 08:53:20.450,-17
"98342411",2017-08-27 08:53:20.454,-16
"98342421",2017-08-27 08:53:20.460,-16
"98342431",2017-08-27 08:53:20.464,-17
"98342441",2017-08-27 08:53:20.470,-20
"98342451",2017-08-27 08:53:20.474,-20
"98342461",2017-08-27 08:53:20.480,-17
"98342471",2017-08-27 08:53:20.484,-16
"98342481",2017-08-27 08:53:20.490,-17
"98342491",2017-08-27 08:53:20.494,-14
"98342501",2017-08-27 08:53:20.500,-13
"98342511",2017-08-27 08:53:20.505,-16
"98342521",2017-08-27 08:53:20.509,-16
"98342531",2017-08-27 08:53:20.515,-11
"98342541",2017-08-27 08:53:20.519,-10
"98342551",2017-08-27 08:53:20.525,-14
"98342561",2017-08-27 08:53:20.529,-15
"98342571",2017-08-27 08:53:20.535,-13
"98342581",2017-08-27 08:53:20.539,-13
"98342591",2017-08-27 08:53:20.545,-12
"98342601",2017-08-27 08:53:20.549,-12
"98342611",2017-08-27 08:53:20.555,-13
"98342621",2017-08-27 08:53:20.559,-14
"98342631",2017-08-27 08:53:20.565,-14
"98342641",2017-08-27 08:53:20.569,-14
"98342651",2017-08-27 08:53:20.575,-14
"98342661",2017-08-27 08:53:20.579,-14
"98342671",2017-08-27 08:53:20.585,-12
"98342681",2017-08-27 08:53:20.589,-12
"98342691",2017-08-27 08:53:20.595,-12
"98342701",2017-08-27 08:53:20.599,-12
"98342711",2017-08-27 08:53:20.605,-13
"98342721",2017-08-27 08:53:20.609,-14
"98342731",2017-08-27 08:53:20.615,-13
"98342741",2017-08-27 08:53:20.619,-13
"98342751",2017-08-27 08:53:20.625,-13
"98342761",2017-08-27 08:53:20.630,-15
"98342771",2017-08-27 08:53:20.634,-15
"98342781",2017-08-27 08:53:20.640,-13
"98342791",2017-08-27 08:53:20.644,-13
"98342801",2017-08-27 08:53:20.650,-14
"98342811",2017-08-27 08:53:20.654,-14
"98342821",2017-08-27 08:53:20.660,-14
"98342831",2017-08-27 08:53:20.664,-14
"98342841",2017-08-27 08:53:20.670,-11
"98342851",2017-08-27 08:53:20.674,-9
"98342861",2017-08-27 08:53:20.680,-9
"98342871",2017-08-27 08:53:20.684,-9
"98342881",2017-08-27 08:53:20.690,-6
"98342891",2017-08-27 08:53:20.694,-4
"98342901",2017-08-27 08:53:20.700,-5
"98342911",2017-08-27 08:53:20.704,-6
"98342921",2017-08-27 08:53:20.710,-9
"98342931",2017-08-27 08:53:20.714,-11
"98342941",2017-08-27 08:53:20.720,-11
"98342951",2017-08-27 08:53:20.724,-11
"98342961",2017-08-27 08:53:20.730,-11
"98342971",2017-08-27 08:53:20.734,-8
"98342981",2017-08-27 08:53:20.740,7
"98342991",2017-08-27 08:53:20.744,39
"98343001",2017-08-27 08:53:20.750,74
"98343011",2017-08-27 08:53:20.755,85
"98343021",2017-08-27 08:53:20.759,61
"98343031",2017-08-27 08:53:20.765,18
"98343041",2017-08-27 08:53:20.769,-10
"98343051",2017-08-27 08:53:20.775,-11
"98343061",2017-08-27 08:53:20.779,1
"98343071",2017-08-27 08:53:20.785,9
"98343081",2017-08-27 08:53:20.789,10
"98343091",2017-08-27 08:53:20.795,8
"98343101",2017-08-27 08:53:20.799,5
"98343111",2017-08-27 08:53:20.805,5
"98343121",2017-08-27 08:53:20.809,6
"98343131",2017-08-27 08:53:20.815,4
"98343141",2017-08-27 08:53:20.819,1
"98343151",2017-08-27 08:53:20.825,2
"98343161",2017-08-27 08:53:20.829,4
"98343171",2017-08-27 08:53:20.835,3
"98343181",2017-08-27 08:53:20.839,1
"98343191",2017-08-27 08:53:20.845,1
"98343201",2017-08-27 08:53:20.849,3
"98343211",2017-08-27 08:53:20.855,5
"98343221",2017-08-27 08:53:20.859,6
"98343231",2017-08-27 08:53:20.865,5
"98343241",2017-08-27 08:53:20.869,5
"98343251",2017-08-27 08:53:20.875,5
"98343261",2017-08-27 08:53:20.880,5
"98343271",2017-08-27 08:53:20.884,6
"98343281",2017-08-27 08:53:20.890,8
"98343291",2017-08-27 08:53:20.894,8
"98343301",2017-08-27 08:53:20.900,7
"98343311",2017-08-27 08:53:20.904,9
"98343321",2017-08-27 08:53:20.910,12
"98343331",2017-08-27 08:53:20.914,13
"98343341",2017-08-27 08:53:20.920,12
"98343351",2017-08-27 08:53:20.924,12
"98343361",2017-08-27 08:53:20.930,13
"98343371",2017-08-27 08:53:20.934,13
"98343381",2017-08-27 08:53:20.940,16
"98343391",2017-08-27 08:53:20.944,19
"98343401",2017-08-27 08:53:20.950,21
"98343411",2017-08-27 08:53:20.954,22
"98343421",2017-08-27 08:53:20.960,23
"98343431",2017-08-27 08:53:20.964,25
"98343441",2017-08-27 08:53:20.970,25
"98343451",2017-08-27 08:53:20.974,24
"98343461",2017-08-27 08:53:20.980,25
"98343471",2017-08-27 08:53:20.984,26
"98343481",2017-08-27 08:53:20.990,28
"98343491",2017-08-27 08:53:20.994,28
"98343501",2017-08-27 08:53:21.000,27
"98343511",2017-08-27 08:53:21.005,26
"98343521",2017-08-27 08:53:21.009,22
"98343531",2017-08-27 08:53:21.015,14
"98343541",2017-08-27 08:53:21.019,7
"98343551",2017-08-27 08:53:21.025,7
"98343561",2017-08-27 08:53:21.029,5
"98343571",2017-08-27 08:53:21.035,-1
"98343581",2017-08-27 08:53:21.039,-9
"98343591",2017-08-27 08:53:21.045,-12
"98343601",2017-08-27 08:53:21.049,-13
"98343611",2017-08-27 08:53:21.055,-15
"98343621",2017-08-27 08:53:21.059,-16
"98343631",2017-08-27 08:53:21.065,-15
"98343641",2017-08-27 08:53:21.069,-16
"98343651",2017-08-27 08:53:21.075,-19
"98343661",2017-08-27 08:53:21.079,-18
"98343671",2017-08-27 08:53:21.085,-16
"98343681",2017-08-27 08:53:21.089,-17
"98343691",2017-08-27 08:53:21.095,-19
"98343701",2017-08-27 08:53:21.099,-19
"98343711",2017-08-27 08:53:21.105,-18
"98343721",2017-08-27 08:53:21.109,-19
"98343731",2017-08-27 08:53:21.115,-18
"98343741",2017-08-27 08:53:21.119,-16
"98343751",2017-08-27 08:53:21.125,-15
"98343761",2017-08-27 08:53:21.130,-16
"98343771",2017-08-27 08:53:21.134,-16
"98343781",2017-08-27 08:53:21.140,-18
"98343791",2017-08-27 08:53:21.144,-18
"98343801",2017-08-27 08:53:21.150,-16
"98343811",2017-08-27 08:53:21.154,-15
"98343821",2017-08-27 08:53:21.160,-16
"98343831",2017-08-27 08:53:21.164,-17
"98343841",2017-08-27 08:53:21.170,-15
"98343851",2017-08-27 08:53:21.174,-13
"98343861",2017-08-27 08:53:21.180,-14
"98343871",2017-08-27 08:53:21.184,-14
"98343881",2017-08-27 08:53:21.190,-14
"98343891",2017-08-27 08:53:21.194,-16
"98343901",2017-08-27 08:53:21.200,-16
"98343911",2017-08-27 08:53:21.204,-14
"98343921",2017-08-27 08:53:21.210,-15
"98343931",2017-08-27 08:53:21.214,-15
"98343941",2017-08-27 08:53:21.220,-13
"98343951",2017-08-27 08:53:21.224,-12
"98343961",2017-08-27 08:53:21.230,-13
"98343971",2017-08-27 08:53:21.234,-14
"98343981",2017-08-27 08:53:21.240,-14
"98343991",2017-08-27 08:53:21.244,-13
"98344001",2017-08-27 08:53:21.250,-14
"98344011",2017-08-27 08:53:21.255,-14
"98344021",2017-08-27 08:53:21.259,-13
"98344031",2017-08-27 08:53:21.265,-13
"98344041",2017-08-27 08:53:21.269,-12
"98344051",2017-08-27 08:53:21.275,-13
"98344061",2017-08-27 08:53:21.279,-14
"98344071",2017-08-27 08:53:21.285,-13
"98344081",2017-08-27 08:53:21.289,-14
"98344091",2017-08-27 08:53:21.295,-14
"98344101",2017-08-27 08:53:21.299,-13
"98344111",2017-08-27 08:53:21.305,-13
"98344121",2017-08-27 08:53:21.309,-16
"98344131",2017-08-27 08:53:21.315,-17
"98344141",2017-08-27 08:53:21.319,-15
"98344151",2017-08-27 08:53:21.325,-13
"98344161",2017-08-27 08:53:21.329,-13
"98344171",2017-08-27 08:53:21.335,-13
"98344181",2017-08-27 08:53:21.339,-10
"98344191",2017-08-27 08:53:21.345,-7
"98344201",2017-08-27 08:53:21.349,-7
"98344211",2017-08-27 08:53:21.355,-7
"98344221",2017-08-27 08:53:21.359,-6
"98344231",2017-08-27 08:53:21.365,-6
"98344241",2017-08-27 08:53:21.369,-7
"98344251",2017-08-27 08:53:21.375,-9
"98344261",2017-08-27 08:53:21.380,-13
"98344271",2017-08-27 08:53:21.384,-15
"98344281",2017-08-27 08:53:21.390,-13
"98344291",2017-08-27 08:53:21.394,-11
"98344301",2017-08-27 08:53:21.400,-9
"98344311",2017-08-27 08:53:21.404,-2
"98344321",2017-08-27 08:53:21.410,19
"98344331",2017-08-27 08:53:21.414,54
"98344341",2017-08-27 08:53:21.420,80
"98344351",2017-08-27 08:53:21.424,76
"98344361",2017-08-27 08:53:21.430,40
"98344371",2017-08-27 08:53:21.434,-1
"98344381",2017-08-27 08:53:21.440,-16
"98344391",2017-08-27 08:53:21.444,-6
"98344401",2017-08-27 08:53:21.450,6
"98344411",2017-08-27 08:53:21.454,7
"98344421",2017-08-27 08:53:21.460,4
"98344431",2017-08-27 08:53:21.464,4
"98344441",2017-08-27 08:53:21.470,5
"98344451",2017-08-27 08:53:21.474,5
"98344461",2017-08-27 08:53:21.480,3
"98344471",2017-08-27 08:53:21.484,1
"98344481",2017-08-27 08:53:21.490,0
"98344491",2017-08-27 08:53:21.494,-1
"98344501",2017-08-27 08:53:21.500,0
"98344511",2017-08-27 08:53:21.505,0
"98344521",2017-08-27 08:53:21.509,-1
"98344531",2017-08-27 08:53:21.515,0
"98344541",2017-08-27 08:53:21.519,1
"98344551",2017-08-27 08:53:21.525,1
"98344561",2017-08-27 08:53:21.529,1
"98344571",2017-08-27 08:53:21.535,3
"98344581",2017-08-27 08:53:21.539,5
"98344591",2017-08-27 08:53:21.545,3
"98344601",2017-08-27 08:53:21.549,4
"98344611",2017-08-27 08:53:21.555,6
"98344621",2017-08-27 08:53:21.559,5
"98344631",2017-08-27 08:53:21.565,3
"98344641",2017-08-27 08:53:21.569,6
"98344651",2017-08-27 08:53:21.575,9
"98344661",2017-08-27 08:53:21.579,9
"98344671",2017-08-27 08:53:21.585,8
"98344681",2017-08-27 08:53:21.589,9
"98344691",2017-08-27 08:53:21.595,11
"98344701",2017-08-27 08:53:21.599,16
"98344711",2017-08-27 08:53:21.605,18
"98344721",2017-08-27 08:53:21.609,18
"98344731",2017-08-27 08:53:21.615,17
"98344741",2017-08-27 08:53:21.619,20
"98344751",2017-08-27 08:53:21.625,23
"98344761",2017-08-27 08:53:21.630,24
"98344771",2017-08-27 08:53:21.634,24
"98344781",2017-08-27 08:53:21.640,27
"98344791",2017-08-27 08:53:21.644,29
"98344801",2017-08-27 08:53:21.650,28
"98344811",2017-08-27 08:53:21.654,26
"98344821",2017-08-27 08:53:21.660,27
"98344831",2017-08-27 08:53:21.664,27
"98344841",2017-08-27 08:53:21.670,27
"98344851",2017-08-27 08:53:21.674,24
"98344861",2017-08-27 08:53:21.680,18
"98344871",2017-08-27 08:53:21.684,13
"98344881",2017-08-27 08:53:21.690,9
"98344891",2017-08-27 08:53:21.694,6
"98344901",2017-08-27 08:53:21.700,1
"98344911",2017-08-27 08:53:21.704,-4
"98344921",2017-08-27 08:53:21.710,-8
"98344931",2017-08-27 08:53:21.714,-10
"98344941",2017-08-27 08:53:21.720,-11
"98344951",2017-08-27 08:53:21.724,-13
"98344961",2017-08-27 08:53:21.730,-16
"98344971",2017-08-27 08:53:21.734,-15
"98344981",2017-08-27 08:53:21.740,-15
"98344991",2017-08-27 08:53:21.744,-17
"98345001",2017-08-27 08:53:21.750,-18
"98345011",2017-08-27 08:53:21.755,-18
"98345021",2017-08-27 08:53:21.759,-20
"98345031",2017-08-27 08:53:21.765,-19
"98345041",2017-08-27 08:53:21.769,-17
"98345051",2017-08-27 08:53:21.775,-18
"98345061",2017-08-27 08:53:21.779,-18
"98345071",2017-08-27 08:53:21.785,-16
"98345081",2017-08-27 08:53:21.789,-16
"98345091",2017-08-27 08:53:21.795,-16
"98345101",2017-08-27 08:53:21.799,-16
"98345111",2017-08-27 08:53:21.805,-16
"98345121",2017-08-27 08:53:21.809,-15
"98345131",2017-08-27 08:53:21.815,-15
"98345141",2017-08-27 08:53:21.819,-15
"98345151",2017-08-27 08:53:21.825,-15
"98345161",2017-08-27 08:53:21.829,-15
"98345171",2017-08-27 08:53:21.835,-15
"98345181",2017-08-27 08:53:21.839,-14
"98345191",2017-08-27 08:53:21.845,-13
"98345201",2017-08-27 08:53:21.849,-14
"98345211",2017-08-27 08:53:21.855,-14
"98345221",2017-08-27 08:53:21.859,-14
"98345231",2017-08-27 08:53:21.865,-14
"98345241",2017-08-27 08:53:21.869,-14
"98345251",2017-08-27 08:53:21.875,-13
"98345261",2017-08-27 08:53:21.880,-12
"98345271",2017-08-27 08:53:21.884,-12
"98345281",2017-08-27 08:53:21.890,-15
"98345291",2017-08-27 08:53:21.894,-16
"98345301",2017-08-27 08:53:21.900,-16
"98345311",2017-08-27 08:53:21.904,-15
"98345321",2017-08-27 08:53:21.910,-15
"98345331",2017-08-27 08:53:21.914,-14
"98345341",2017-08-27 08:53:21.920,-13
"98345351",2017-08-27 08:53:21.924,-14
"98345361",2017-08-27 08:53:21.930,-15
"98345371",2017-08-27 08:53:21.934,-13
"98345381",2017-08-27 08:53:21.940,-12
"98345391",2017-08-27 08:53:21.944,-14
"98345401",2017-08-27 08:53:21.950,-16
"98345411",2017-08-27 08:53:21.954,-15
"98345421",2017-08-27 08:53:21.960,-14
"98345431",2017-08-27 08:53:21.964,-15
"98345441",2017-08-27 08:53:21.970,-14
"98345451",2017-08-27 08:53:21.974,-10
"98345461",2017-08-27 08:53:21.980,-10
"98345471",2017-08-27 08:53:21.984,-13
"98345481",2017-08-27 08:53:21.990,-14
"98345491",2017-08-27 08:53:21.994,-12
"98345501",2017-08-27 08:53:22.000,-12
"98345511",2017-08-27 08:53:22.005,-13
"98345521",2017-08-27 08:53:22.009,-12
"98345531",2017-08-27 08:53:22.015,-12
"98345541",2017-08-27 08:53:22.019,-13
"98345551",2017-08-27 08:53:22.025,-10
"98345561",2017-08-27 08:53:22.029,-7
"98345571",2017-08-27 08:53:22.035,-8
"98345581",2017-08-27 08:53:22.039,-11
"98345591",2017-08-27 08:53:22.045,-11
"98345601",2017-08-27 08:53:22.049,-9
"98345611",2017-08-27 08:53:22.055,-10
"98345621",2017-08-27 08:53:22.059,-9
"98345631",2017-08-27 08:53:22.065,-8
"98345641",2017-08-27 08:53:22.069,-8
"98345651",2017-08-27 08:53:22.075,-9
"98345661",2017-08-27 08:53:22.079,-10
"98345671",2017-08-27 08:53:22.085,-9
"98345681",2017-08-27 08:53:22.089,-8
"98345691",2017-08-27 08:53:22.095,-8
"98345701",2017-08-27 08:53:22.099,-9
"98345711",2017-08-27 08:53:22.105,-10
"98345721",2017-08-27 08:53:22.109,-11
"98345731",2017-08-27 08:53:22.115,-9
"98345741",2017-08-27 08:53:22.119,-8
"98345751",2017-08-27 08:53:22.125,-7
"98345761",2017-08-27 08:53:22.130,-8
"98345771",2017-08-27 08:53:22.134,-8
"98345781",2017-08-27 08:53:22.140,-8
"98345791",2017-08-27 08:53:22.144,-8
"98345801",2017-08-27 08:53:22.150,-9
"98345811",2017-08-27 08:53:22.154,-7
"98345821",2017-08-27 08:53:22.160,-7
"98345831",2017-08-27 08:53:22.164,-7
"98345841",2017-08-27 08:53:22.170,-8
"98345851",2017-08-27 08:53:22.174,-8
"98345861",2017-08-27 08:53:22.180,-7
"98345871",2017-08-27 08:53:22.184,-7
"98345881",2017-08-27 08:53:22.190,-7
"98345891",2017-08-27 08:53:22.194,-7
"98345901",2017-08-27 08:53:22.200,-7
"98345911",2017-08-27 08:53:22.204,-6
"98345921",2017-08-27 08:53:22.210,-5
"98345931",2017-08-27 08:53:22.214,-3
"98345941",2017-08-27 08:53:22.220,-4
"98345951",2017-08-27 08:53:22.224,-5
"98345961",2017-08-27 08:53:22.230,-5
"98345971",2017-08-27 08:53:22.234,-5
"98345981",2017-08-27 08:53:22.240,-7
"98345991",2017-08-27 08:53:22.244,-6
"98346001",2017-08-27 08:53:22.250,-6
"98346011",2017-08-27 08:53:22.255,-5
"98346021",2017-08-27 08:53:22.259,-5
"98346031",2017-08-27 08:53:22.265,-5
"98346041",2017-08-27 08:53:22.269,-4
"98346051",2017-08-27 08:53:22.275,-4
"98346061",2017-08-27 08:53:22.279,-5
"98346071",2017-08-27 08:53:22.285,-6
"98346081",2017-08-27 08:53:22.289,-5
"98346091",2017-08-27 08:53:22.295,-3
"98346101",2017-08-27 08:53:22.299,-3
"98346111",2017-08-27 08:53:22.305,-3
"98346121",2017-08-27 08:53:22.309,-3
"98346131",2017-08-27 08:53:22.315,-5
"98346141",2017-08-27 08:53:22.319,-5
"98346151",2017-08-27 08:53:22.325,-2
"98346161",2017-08-27 08:53:22.329,-1
"98346171",2017-08-27 08:53:22.335,-1
"98346181",2017-08-27 08:53:22.339,-1
"98346191",2017-08-27 08:53:22.345,0
"98346201",2017-08-27 08:53:22.349,-2
"98346211",2017-08-27 08:53:22.355,-4
"98346221",2017-08-27 08:53:22.359,-4
"98346231",2017-08-27 08:53:22.365,-4
"98346241",2017-08-27 08:53:22.369,-2
"98346251",2017-08-27 08:53:22.375,-2
"98346261",2017-08-27 08:53:22.380,-4
"98346271",2017-08-27 08:53:22.384,-3
"98346281",2017-08-27 08:53:22.390,-2
"98346291",2017-08-27 08:53:22.394,-2
"98346301",2017-08-27 08:53:22.400,-2
"98346311",2017-08-27 08:53:22.404,0
"98346321",2017-08-27 08:53:22.410,0
"98346331",2017-08-27 08:53:22.414,-1
"98346341",2017-08-27 08:53:22.420,-3
"98346351",2017-08-27 08:53:22.424,-2
"98346361",2017-08-27 08:53:22.430,-1
"98346371",2017-08-27 08:53:22.434,-2
"98346381",2017-08-27 08:53:22.440,-2
"98346391",2017-08-27 08:53:22.444,0
"98346401",2017-08-27 08:53:22.450,-2
"98346411",2017-08-27 08:53:22.454,-5
"98346421",2017-08-27 08:53:22.460,-2
"98346431",2017-08-27 08:53:22.464,0
"98346441",2017-08-27 08:53:22.470,1
"98346451",2017-08-27 08:53:22.474,0
"98346461",2017-08-27 08:53:22.480,-2
"98346471",2017-08-27 08:53:22.484,-2
"98346481",2017-08-27 08:53:22.490,-1
"98346491",2017-08-27 08:53:22.494,0
"98346501",2017-08-27 08:53:22.500,1
"98346511",2017-08-27 08:53:22.505,0
"98346521",2017-08-27 08:53:22.509,-2
"98346531",2017-08-27 08:53:22.515,-3
"98346541",2017-08-27 08:53:22.519,-2
"98346551",2017-08-27 08:53:22.525,0
"98346561",2017-08-27 08:53:22.529,0
"98346571",2017-08-27 08:53:22.535,-1
"98346581",2017-08-27 08:53:22.539,0
"98346591",2017-08-27 08:53:22.545,0
"98346601",2017-08-27 08:53:22.549,-1
"98346611",2017-08-27 08:53:22.555,-1
"98346621",2017-08-27 08:53:22.559,1
"98346631",2017-08-27 08:53:22.565,0
"98346641",2017-08-27 08:53:22.569,-2
"98346651",2017-08-27 08:53:22.575,-1
"98346661",2017-08-27 08:53:22.579,0
"98346671",2017-08-27 08:53:22.585,-1
"98346681",2017-08-27 08:53:22.589,-2
"98346691",2017-08-27 08:53:22.595,-1
"98346701",2017-08-27 08:53:22.599,-1
"98346711",2017-08-27 08:53:22.605,-3
"98346721",2017-08-27 08:53:22.609,-3
"98346731",2017-08-27 08:53:22.615,-1
"98346741",2017-08-27 08:53:22.619,0
"98346751",2017-08-27 08:53:22.625,0
"98346761",2017-08-27 08:53:22.630,4
"98346771",2017-08-27 08:53:22.634,8
"98346781",2017-08-27 08:53:22.640,8
"98346791",2017-08-27 08:53:22.644,4
"98346801",2017-08-27 08:53:22.650,3
"98346811",2017-08-27 08:53:22.654,5
"98346821",2017-08-27 08:53:22.660,8
"98346831",2017-08-27 08:53:22.664,8
"98346841",2017-08-27 08:53:22.670,8
"98346851",2017-08-27 08:53:22.674,7
"98346861",2017-08-27 08:53:22.680,7
"98346871",2017-08-27 08:53:22.684,6
"98346881",2017-08-27 08:53:22.690,5
"98346891",2017-08-27 08:53:22.694,2
"98346901",2017-08-27 08:53:22.700,-2
"98346911",2017-08-27 08:53:22.704,-2
"98346921",2017-08-27 08:53:22.710,-1
"98346931",2017-08-27 08:53:22.714,-3
"98346941",2017-08-27 08:53:22.720,-5
"98346951",2017-08-27 08:53:22.724,-5
"98346961",2017-08-27 08:53:22.730,-5
"98346971",2017-08-27 08:53:22.734,-2
"98346981",2017-08-27 08:53:22.740,9
"98346991",2017-08-27 08:53:22.744,35
"98347001",2017-08-27 08:53:22.750,72
"98347011",2017-08-27 08:53:22.755,95
"98347021",2017-08-27 08:53:22.759,81
"98347031",2017-08-27 08:53:22.765,37
"98347041",2017-08-27 08:53:22.769,2
"98347051",2017-08-27 08:53:22.775,-5
"98347061",2017-08-27 08:53:22.779,5
"98347071",2017-08-27 08:53:22.785,13
"98347081",2017-08-27 08:53:22.789,14
"98347091",2017-08-27 08:53:22.795,13
"98347101",2017-08-27 08:53:22.799,13
"98347111",2017-08-27 08:53:22.805,11
"98347121",2017-08-27 08:53:22.809,8
"98347131",2017-08-27 08:53:22.815,7
"98347141",2017-08-27 08:53:22.819,7
"98347151",2017-08-27 08:53:22.825,8
"98347161",2017-08-27 08:53:22.829,7
"98347171",2017-08-27 08:53:22.835,7
"98347181",2017-08-27 08:53:22.839,7
"98347191",2017-08-27 08:53:22.845,8
"98347201",2017-08-27 08:53:22.849,8
"98347211",2017-08-27 08:53:22.855,6
"98347221",2017-08-27 08:53:22.859,5
"98347231",2017-08-27 08:53:22.865,7
"98347241",2017-08-27 08:53:22.869,8
"98347251",2017-08-27 08:53:22.875,7
"98347261",2017-08-27 08:53:22.880,8
"98347271",2017-08-27 08:53:22.884,9
"98347281",2017-08-27 08:53:22.890,8
"98347291",2017-08-27 08:53:22.894,7
"98347301",2017-08-27 08:53:22.900,9
"98347311",2017-08-27 08:53:22.904,11
"98347321",2017-08-27 08:53:22.910,12
"98347331",2017-08-27 08:53:22.914,13
"98347341",2017-08-27 08:53:22.920,13
"98347351",2017-08-27 08:53:22.924,12
"98347361",2017-08-27 08:53:22.930,13
"98347371",2017-08-27 08:53:22.934,15
"98347381",2017-08-27 08:53:22.940,18
"98347391",2017-08-27 08:53:22.944,20
"98347401",2017-08-27 08:53:22.950,22
"98347411",2017-08-27 08:53:22.954,23
"98347421",2017-08-27 08:53:22.960,25
"98347431",2017-08-27 08:53:22.964,26
"98347441",2017-08-27 08:53:22.970,29
"98347451",2017-08-27 08:53:22.974,30
"98347461",2017-08-27 08:53:22.980,32
"98347471",2017-08-27 08:53:22.984,32
"98347481",2017-08-27 08:53:22.990,33
"98347491",2017-08-27 08:53:22.994,33
"98347501",2017-08-27 08:53:23.000,33
"98347511",2017-08-27 08:53:23.005,32
"98347521",2017-08-27 08:53:23.009,33
"98347531",2017-08-27 08:53:23.015,32
"98347541",2017-08-27 08:53:23.019,30
"98347551",2017-08-27 08:53:23.025,26
"98347561",2017-08-27 08:53:23.029,22
"98347571",2017-08-27 08:53:23.035,17
"98347581",2017-08-27 08:53:23.039,11
"98347591",2017-08-27 08:53:23.045,7
"98347601",2017-08-27 08:53:23.049,6
"98347611",2017-08-27 08:53:23.055,2
"98347621",2017-08-27 08:53:23.059,-3
"98347631",2017-08-27 08:53:23.065,-6
"98347641",2017-08-27 08:53:23.069,-7
"98347651",2017-08-27 08:53:23.075,-6
"98347661",2017-08-27 08:53:23.079,-8
"98347671",2017-08-27 08:53:23.085,-11
"98347681",2017-08-27 08:53:23.089,-13
"98347691",2017-08-27 08:53:23.095,-13
"98347701",2017-08-27 08:53:23.099,-12
"98347711",2017-08-27 08:53:23.105,-11
"98347721",2017-08-27 08:53:23.109,-12
"98347731",2017-08-27 08:53:23.115,-13
"98347741",2017-08-27 08:53:23.119,-13
"98347751",2017-08-27 08:53:23.125,-10
"98347761",2017-08-27 08:53:23.130,-9
"98347771",2017-08-27 08:53:23.134,-11
"98347781",2017-08-27 08:53:23.140,-12
"98347791",2017-08-27 08:53:23.144,-11
"98347801",2017-08-27 08:53:23.150,-12
"98347811",2017-08-27 08:53:23.154,-14
"98347821",2017-08-27 08:53:23.160,-13
"98347831",2017-08-27 08:53:23.164,-11
"98347841",2017-08-27 08:53:23.170,-10
"98347851",2017-08-27 08:53:23.174,-10
"98347861",2017-08-27 08:53:23.180,-10
"98347871",2017-08-27 08:53:23.184,-10
"98347881",2017-08-27 08:53:23.190,-11
"98347891",2017-08-27 08:53:23.194,-10
"98347901",2017-08-27 08:53:23.200,-9
"98347911",2017-08-27 08:53:23.204,-10
"98347921",2017-08-27 08:53:23.210,-9
"98347931",2017-08-27 08:53:23.214,-9
"98347941",2017-08-27 08:53:23.220,-9
"98347951",2017-08-27 08:53:23.224,-9
"98347961",2017-08-27 08:53:23.230,-8
"98347971",2017-08-27 08:53:23.234,-7
"98347981",2017-08-27 08:53:23.240,-7
"98347991",2017-08-27 08:53:23.244,-9
"98348001",2017-08-27 08:53:23.250,-10
"98348011",2017-08-27 08:53:23.255,-10
"98348021",2017-08-27 08:53:23.259,-10
"98348031",2017-08-27 08:53:23.265,-10
"98348041",2017-08-27 08:53:23.269,-10
"98348051",2017-08-27 08:53:23.275,-11
"98348061",2017-08-27 08:53:23.279,-12
"98348071",2017-08-27 08:53:23.285,-11
"98348081",2017-08-27 08:53:23.289,-9
"98348091",2017-08-27 08:53:23.295,-8
"98348101",2017-08-27 08:53:23.299,-9
"98348111",2017-08-27 08:53:23.305,-10
"98348121",2017-08-27 08:53:23.309,-9
"98348131",2017-08-27 08:53:23.315,-8
"98348141",2017-08-27 08:53:23.319,-8
"98348151",2017-08-27 08:53:23.325,-8
"98348161",2017-08-27 08:53:23.329,-9
"98348171",2017-08-27 08:53:23.335,-10
"98348181",2017-08-27 08:53:23.339,-10
"98348191",2017-08-27 08:53:23.345,-11
"98348201",2017-08-27 08:53:23.349,-12
"98348211",2017-08-27 08:53:23.355,-10
"98348221",2017-08-27 08:53:23.359,-8
"98348231",2017-08-27 08:53:23.365,-8
"98348241",2017-08-27 08:53:23.369,-7
"98348251",2017-08-27 08:53:23.375,-6
"98348261",2017-08-27 08:53:23.380,-7
"98348271",2017-08-27 08:53:23.384,-8
"98348281",2017-08-27 08:53:23.390,-8
"98348291",2017-08-27 08:53:23.394,-8
"98348301",2017-08-27 08:53:23.400,-8
"98348311",2017-08-27 08:53:23.404,-7
"98348321",2017-08-27 08:53:23.410,-7
"98348331",2017-08-27 08:53:23.414,-7
"98348341",2017-08-27 08:53:23.420,-8
"98348351",2017-08-27 08:53:23.424,-9
"98348361",2017-08-27 08:53:23.430,-9
"98348371",2017-08-27 08:53:23.434,-8
"98348381",2017-08-27 08:53:23.440,-7
"98348391",2017-08-27 08:53:23.444,-6
"98348401",2017-08-27 08:53:23.450,-7
"98348411",2017-08-27 08:53:23.454,-7
"98348421",2017-08-27 08:53:23.460,-8
"98348431",2017-08-27 08:53:23.464,-8
"98348441",2017-08-27 08:53:23.470,-7
"98348451",2017-08-27 08:53:23.474,-6
"98348461",2017-08-27 08:53:23.480,-6
"98348471",2017-08-27 08:53:23.484,-5
"98348481",2017-08-27 08:53:23.490,-5
"98348491",2017-08-27 08:53:23.494,-8
"98348501",2017-08-27 08:53:23.500,-8
"98348511",2017-08-27 08:53:23.505,-7
"98348521",2017-08-27 08:53:23.509,-6
"98348531",2017-08-27 08:53:23.515,-5
"98348541",2017-08-27 08:53:23.519,-5
"98348551",2017-08-27 08:53:23.525,-5
"98348561",2017-08-27 08:53:23.529,-4
"98348571",2017-08-27 08:53:23.535,-4
"98348581",2017-08-27 08:53:23.539,-5
"98348591",2017-08-27 08:53:23.545,-5
"98348601",2017-08-27 08:53:23.549,-6
"98348611",2017-08-27 08:53:23.555,-6
"98348621",2017-08-27 08:53:23.559,-6
"98348631",2017-08-27 08:53:23.565,-5
"98348641",2017-08-27 08:53:23.569,-4
"98348651",2017-08-27 08:53:23.575,-3
"98348661",2017-08-27 08:53:23.579,-3
"98348671",2017-08-27 08:53:23.585,-4
"98348681",2017-08-27 08:53:23.589,-5
"98348691",2017-08-27 08:53:23.595,-4
"98348701",2017-08-27 08:53:23.599,-3
"98348711",2017-08-27 08:53:23.605,-2
"98348721",2017-08-27 08:53:23.609,-2
"98348731",2017-08-27 08:53:23.615,-4
"98348741",2017-08-27 08:53:23.619,-5
"98348751",2017-08-27 08:53:23.625,-4
"98348761",2017-08-27 08:53:23.630,-2
"98348771",2017-08-27 08:53:23.634,-4
"98348781",2017-08-27 08:53:23.640,-5
"98348791",2017-08-27 08:53:23.644,-2
"98348801",2017-08-27 08:53:23.650,-3
"98348811",2017-08-27 08:53:23.654,-5
"98348821",2017-08-27 08:53:23.660,-3
"98348831",2017-08-27 08:53:23.664,0
"98348841",2017-08-27 08:53:23.670,0
"98348851",2017-08-27 08:53:23.674,0
"98348861",2017-08-27 08:53:23.680,-1
"98348871",2017-08-27 08:53:23.684,-2
"98348881",2017-08-27 08:53:23.690,-3
"98348891",2017-08-27 08:53:23.694,-2
"98348901",2017-08-27 08:53:23.700,-1
"98348911",2017-08-27 08:53:23.704,1
"98348921",2017-08-27 08:53:23.710,1
"98348931",2017-08-27 08:53:23.714,0
"98348941",2017-08-27 08:53:23.720,1
"98348951",2017-08-27 08:53:23.724,3
"98348961",2017-08-27 08:53:23.730,3
"98348971",2017-08-27 08:53:23.734,3
"98348981",2017-08-27 08:53:23.740,4
"98348991",2017-08-27 08:53:23.744,3
"98349001",2017-08-27 08:53:23.750,4
"98349011",2017-08-27 08:53:23.755,6
"98349021",2017-08-27 08:53:23.759,5
"98349031",2017-08-27 08:53:23.765,3
"98349041",2017-08-27 08:53:23.769,1
"98349051",2017-08-27 08:53:23.775,0
"98349061",2017-08-27 08:53:23.779,-3
"98349071",2017-08-27 08:53:23.785,-5
"98349081",2017-08-27 08:53:23.789,-3
"98349091",2017-08-27 08:53:23.795,-3
"98349101",2017-08-27 08:53:23.799,-4
"98349111",2017-08-27 08:53:23.805,-5
"98349121",2017-08-27 08:53:23.809,-6
"98349131",2017-08-27 08:53:23.815,-4
"98349141",2017-08-27 08:53:23.819,4
"98349151",2017-08-27 08:53:23.825,27
"98349161",2017-08-27 08:53:23.829,64
"98349171",2017-08-27 08:53:23.835,95
"98349181",2017-08-27 08:53:23.839,93
"98349191",2017-08-27 08:53:23.845,54
"98349201",2017-08-27 08:53:23.849,7
"98349211",2017-08-27 08:53:23.855,-13
"98349221",2017-08-27 08:53:23.859,-4
"98349231",2017-08-27 08:53:23.865,9
"98349241",2017-08-27 08:53:23.869,14
"98349251",2017-08-27 08:53:23.875,14
"98349261",2017-08-27 08:53:23.880,13
"98349271",2017-08-27 08:53:23.884,13
"98349281",2017-08-27 08:53:23.890,13
"98349291",2017-08-27 08:53:23.894,10
"98349301",2017-08-27 08:53:23.900,8
"98349311",2017-08-27 08:53:23.904,7
"98349321",2017-08-27 08:53:23.910,8
"98349331",2017-08-27 08:53:23.914,8
"98349341",2017-08-27 08:53:23.920,7
"98349351",2017-08-27 08:53:23.924,8
"98349361",2017-08-27 08:53:23.930,9
"98349371",2017-08-27 08:53:23.934,7
"98349381",2017-08-27 08:53:23.940,6
"98349391",2017-08-27 08:53:23.944,9
"98349401",2017-08-27 08:53:23.950,11
"98349411",2017-08-27 08:53:23.954,10
"98349421",2017-08-27 08:53:23.960,11
"98349431",2017-08-27 08:53:23.964,12
"98349441",2017-08-27 08:53:23.970,12
"98349451",2017-08-27 08:53:23.974,11
"98349461",2017-08-27 08:53:23.980,11
"98349471",2017-08-27 08:53:23.984,14
"98349481",2017-08-27 08:53:23.990,14
"98349491",2017-08-27 08:53:23.994,15
"98349501",2017-08-27 08:53:24.000,17
"98349511",2017-08-27 08:53:24.005,17
"98349521",2017-08-27 08:53:24.009,17
"98349531",2017-08-27 08:53:24.015,18
"98349541",2017-08-27 08:53:24.019,22
"98349551",2017-08-27 08:53:24.025,23
"98349561",2017-08-27 08:53:24.029,23
"98349571",2017-08-27 08:53:24.035,24
"98349581",2017-08-27 08:53:24.039,28
"98349591",2017-08-27 08:53:24.045,28
"98349601",2017-08-27 08:53:24.049,29
"98349611",2017-08-27 08:53:24.055,32
"98349621",2017-08-27 08:53:24.059,36
"98349631",2017-08-27 08:53:24.065,38
"98349641",2017-08-27 08:53:24.069,37
"98349651",2017-08-27 08:53:24.075,35
"98349661",2017-08-27 08:53:24.079,35
"98349671",2017-08-27 08:53:24.085,35
"98349681",2017-08-27 08:53:24.089,33
"98349691",2017-08-27 08:53:24.095,29
"98349701",2017-08-27 08:53:24.099,27
"98349711",2017-08-27 08:53:24.105,24
"98349721",2017-08-27 08:53:24.109,20
"98349731",2017-08-27 08:53:24.115,14
"98349741",2017-08-27 08:53:24.119,8
"98349751",2017-08-27 08:53:24.125,1
"98349761",2017-08-27 08:53:24.130,-3
"98349771",2017-08-27 08:53:24.134,-5
"98349781",2017-08-27 08:53:24.140,-7
"98349791",2017-08-27 08:53:24.144,-10
"98349801",2017-08-27 08:53:24.150,-13
"98349811",2017-08-27 08:53:24.154,-14
"98349821",2017-08-27 08:53:24.160,-15
"98349831",2017-08-27 08:53:24.164,-17
"98349841",2017-08-27 08:53:24.170,-19
"98349851",2017-08-27 08:53:24.174,-19
"98349861",2017-08-27 08:53:24.180,-18
"98349871",2017-08-27 08:53:24.184,-18
"98349881",2017-08-27 08:53:24.190,-17
"98349891",2017-08-27 08:53:24.194,-16
"98349901",2017-08-27 08:53:24.200,-16
"98349911",2017-08-27 08:53:24.204,-16
"98349921",2017-08-27 08:53:24.210,-16
"98349931",2017-08-27 08:53:24.214,-16
"98349941",2017-08-27 08:53:24.220,-17
"98349951",2017-08-27 08:53:24.224,-17
"98349961",2017-08-27 08:53:24.230,-17
"98349971",2017-08-27 08:53:24.234,-15
"98349981",2017-08-27 08:53:24.240,-15
"98349991",2017-08-27 08:53:24.244,-16
"98350001",2017-08-27 08:53:24.250,-16
"98350011",2017-08-27 08:53:24.255,-15
"98350021",2017-08-27 08:53:24.259,-13
"98350031",2017-08-27 08:53:24.265,-13
"98350041",2017-08-27 08:53:24.269,-13
"98350051",2017-08-27 08:53:24.275,-13
"98350061",2017-08-27 08:53:24.279,-13
"98350071",2017-08-27 08:53:24.285,-11
"98350081",2017-08-27 08:53:24.289,-11
"98350091",2017-08-27 08:53:24.295,-12
"98350101",2017-08-27 08:53:24.299,-13
"98350111",2017-08-27 08:53:24.305,-13
"98350121",2017-08-27 08:53:24.309,-12
"98350131",2017-08-27 08:53:24.315,-11
"98350141",2017-08-27 08:53:24.319,-11
"98350151",2017-08-27 08:53:24.325,-12
"98350161",2017-08-27 08:53:24.329,-13
"98350171",2017-08-27 08:53:24.335,-12
"98350181",2017-08-27 08:53:24.339,-12
"98350191",2017-08-27 08:53:24.345,-12
"98350201",2017-08-27 08:53:24.349,-12
"98350211",2017-08-27 08:53:24.355,-12
"98350221",2017-08-27 08:53:24.359,-12
"98350231",2017-08-27 08:53:24.365,-12
"98350241",2017-08-27 08:53:24.369,-13
"98350251",2017-08-27 08:53:24.375,-14
"98350261",2017-08-27 08:53:24.380,-13
"98350271",2017-08-27 08:53:24.384,-13
"98350281",2017-08-27 08:53:24.390,-13
"98350291",2017-08-27 08:53:24.394,-13
"98350301",2017-08-27 08:53:24.400,-12
"98350311",2017-08-27 08:53:24.404,-11
"98350321",2017-08-27 08:53:24.410,-11
"98350331",2017-08-27 08:53:24.414,-12
"98350341",2017-08-27 08:53:24.420,-12
"98350351",2017-08-27 08:53:24.424,-13
"98350361",2017-08-27 08:53:24.430,-13
"98350371",2017-08-27 08:53:24.434,-12
"98350381",2017-08-27 08:53:24.440,-10
"98350391",2017-08-27 08:53:24.444,-9
"98350401",2017-08-27 08:53:24.450,-10
"98350411",2017-08-27 08:53:24.454,-11
"98350421",2017-08-27 08:53:24.460,-12
"98350431",2017-08-27 08:53:24.464,-13
"98350441",2017-08-27 08:53:24.470,-13
"98350451",2017-08-27 08:53:24.474,-10
"98350461",2017-08-27 08:53:24.480,-8
"98350471",2017-08-27 08:53:24.484,-8
"98350481",2017-08-27 08:53:24.490,-9
"98350491",2017-08-27 08:53:24.494,-10
"98350501",2017-08-27 08:53:24.500,-11
"98350511",2017-08-27 08:53:24.505,-10
"98350521",2017-08-27 08:53:24.509,-10
"98350531",2017-08-27 08:53:24.515,-10
"98350541",2017-08-27 08:53:24.519,-9
"98350551",2017-08-27 08:53:24.525,-8
"98350561",2017-08-27 08:53:24.529,-8
"98350571",2017-08-27 08:53:24.535,-8
"98350581",2017-08-27 08:53:24.539,-9
"98350591",2017-08-27 08:53:24.545,-10
"98350601",2017-08-27 08:53:24.549,-9
"98350611",2017-08-27 08:53:24.555,-9
"98350621",2017-08-27 08:53:24.559,-10
"98350631",2017-08-27 08:53:24.565,-9
"98350641",2017-08-27 08:53:24.569,-6
"98350651",2017-08-27 08:53:24.575,-6
"98350661",2017-08-27 08:53:24.579,-7
"98350671",2017-08-27 08:53:24.585,-7
"98350681",2017-08-27 08:53:24.589,-7
"98350691",2017-08-27 08:53:24.595,-7
"98350701",2017-08-27 08:53:24.599,-8
"98350711",2017-08-27 08:53:24.605,-9
"98350721",2017-08-27 08:53:24.609,-9
"98350731",2017-08-27 08:53:24.615,-6
"98350741",2017-08-27 08:53:24.619,-4
"98350751",2017-08-27 08:53:24.625,-3
"98350761",2017-08-27 08:53:24.630,-4
"98350771",2017-08-27 08:53:24.634,-5
"98350781",2017-08-27 08:53:24.640,-5
"98350791",2017-08-27 08:53:24.644,-5
"98350801",2017-08-27 08:53:24.650,-6
"98350811",2017-08-27 08:53:24.654,-5
"98350821",2017-08-27 08:53:24.660,-5
"98350831",2017-08-27 08:53:24.664,-5
"98350841",2017-08-27 08:53:24.670,-5
"98350851",2017-08-27 08:53:24.674,-6
"98350861",2017-08-27 08:53:24.680,-6
"98350871",2017-08-27 08:53:24.684,-5
"98350881",2017-08-27 08:53:24.690,-5
"98350891",2017-08-27 08:53:24.694,-4
"98350901",2017-08-27 08:53:24.700,-2
"98350911",2017-08-27 08:53:24.704,-2
"98350921",2017-08-27 08:53:24.710,-5
"98350931",2017-08-27 08:53:24.714,-6
"98350941",2017-08-27 08:53:24.720,-6
"98350951",2017-08-27 08:53:24.724,-5
"98350961",2017-08-27 08:53:24.730,-3
"98350971",2017-08-27 08:53:24.734,-2
"98350981",2017-08-27 08:53:24.740,-2
"98350991",2017-08-27 08:53:24.744,-4
"98351001",2017-08-27 08:53:24.750,-4
"98351011",2017-08-27 08:53:24.755,-3
"98351021",2017-08-27 08:53:24.759,-3
"98351031",2017-08-27 08:53:24.765,-3
"98351041",2017-08-27 08:53:24.769,-4
"98351051",2017-08-27 08:53:24.775,-4
"98351061",2017-08-27 08:53:24.779,-3
"98351071",2017-08-27 08:53:24.785,-3
"98351081",2017-08-27 08:53:24.789,-3
"98351091",2017-08-27 08:53:24.795,-2
"98351101",2017-08-27 08:53:24.799,-1
"98351111",2017-08-27 08:53:24.805,0
"98351121",2017-08-27 08:53:24.809,0
"98351131",2017-08-27 08:53:24.815,1
"98351141",2017-08-27 08:53:24.819,1
"98351151",2017-08-27 08:53:24.825,1
"98351161",2017-08-27 08:53:24.829,3
"98351171",2017-08-27 08:53:24.835,4
"98351181",2017-08-27 08:53:24.839,4
"98351191",2017-08-27 08:53:24.845,4
"98351201",2017-08-27 08:53:24.849,5
"98351211",2017-08-27 08:53:24.855,3
"98351221",2017-08-27 08:53:24.859,1
"98351231",2017-08-27 08:53:24.865,0
"98351241",2017-08-27 08:53:24.869,-1
"98351251",2017-08-27 08:53:24.875,-6
"98351261",2017-08-27 08:53:24.880,-9
"98351271",2017-08-27 08:53:24.884,-9
"98351281",2017-08-27 08:53:24.890,-8
"98351291",2017-08-27 08:53:24.894,-9
"98351301",2017-08-27 08:53:24.900,-7
"98351311",2017-08-27 08:53:24.904,-5
"98351321",2017-08-27 08:53:24.910,1
"98351331",2017-08-27 08:53:24.914,22
"98351341",2017-08-27 08:53:24.920,59
"98351351",2017-08-27 08:53:24.924,89
"98351361",2017-08-27 08:53:24.930,87
"98351371",2017-08-27 08:53:24.934,50
"98351381",2017-08-27 08:53:24.940,8
"98351391",2017-08-27 08:53:24.944,-9
"98351401",2017-08-27 08:53:24.950,-1
"98351411",2017-08-27 08:53:24.954,10
"98351421",2017-08-27 08:53:24.960,12
"98351431",2017-08-27 08:53:24.964,11
"98351441",2017-08-27 08:53:24.970,10
"98351451",2017-08-27 08:53:24.974,9
"98351461",2017-08-27 08:53:24.980,7
"98351471",2017-08-27 08:53:24.984,5
"98351481",2017-08-27 08:53:24.990,5
"98351491",2017-08-27 08:53:24.994,5
"98351501",2017-08-27 08:53:25.000,5
"98351511",2017-08-27 08:53:25.005,5
"98351521",2017-08-27 08:53:25.009,5
"98351531",2017-08-27 08:53:25.015,5
"98351541",2017-08-27 08:53:25.019,5
"98351551",2017-08-27 08:53:25.025,4
"98351561",2017-08-27 08:53:25.029,4
"98351571",2017-08-27 08:53:25.035,4
"98351581",2017-08-27 08:53:25.039,5
"98351591",2017-08-27 08:53:25.045,5
"98351601",2017-08-27 08:53:25.049,6
"98351611",2017-08-27 08:53:25.055,9
"98351621",2017-08-27 08:53:25.059,9
"98351631",2017-08-27 08:53:25.065,8
"98351641",2017-08-27 08:53:25.069,9
"98351651",2017-08-27 08:53:25.075,10
"98351661",2017-08-27 08:53:25.079,10
"98351671",2017-08-27 08:53:25.085,10
"98351681",2017-08-27 08:53:25.089,12
"98351691",2017-08-27 08:53:25.095,14
"98351701",2017-08-27 08:53:25.099,15
"98351711",2017-08-27 08:53:25.105,17
"98351721",2017-08-27 08:53:25.109,19
"98351731",2017-08-27 08:53:25.115,19
"98351741",2017-08-27 08:53:25.119,20
"98351751",2017-08-27 08:53:25.125,21
"98351761",2017-08-27 08:53:25.130,23
"98351771",2017-08-27 08:53:25.134,26
"98351781",2017-08-27 08:53:25.140,27
"98351791",2017-08-27 08:53:25.144,28
"98351801",2017-08-27 08:53:25.150,30
"98351811",2017-08-27 08:53:25.154,31
"98351821",2017-08-27 08:53:25.160,33
"98351831",2017-08-27 08:53:25.164,34
"98351841",2017-08-27 08:53:25.170,35
"98351851",2017-08-27 08:53:25.174,33
"98351861",2017-08-27 08:53:25.180,31
"98351871",2017-08-27 08:53:25.184,29
"98351881",2017-08-27 08:53:25.190,28
"98351891",2017-08-27 08:53:25.194,24
"98351901",2017-08-27 08:53:25.200,20
"98351911",2017-08-27 08:53:25.204,15
"98351921",2017-08-27 08:53:25.210,10
"98351931",2017-08-27 08:53:25.214,5
"98351941",2017-08-27 08:53:25.220,0
"98351951",2017-08-27 08:53:25.224,-4
"98351961",2017-08-27 08:53:25.230,-8
"98351971",2017-08-27 08:53:25.234,-12
"98351981",2017-08-27 08:53:25.240,-15
"98351991",2017-08-27 08:53:25.244,-16
"98352001",2017-08-27 08:53:25.250,-14
"98352011",2017-08-27 08:53:25.255,-14
"98352021",2017-08-27 08:53:25.259,-15
"98352031",2017-08-27 08:53:25.265,-16
"98352041",2017-08-27 08:53:25.269,-16
"98352051",2017-08-27 08:53:25.275,-15
"98352061",2017-08-27 08:53:25.279,-18
"98352071",2017-08-27 08:53:25.285,-19
"98352081",2017-08-27 08:53:25.289,-19
"98352091",2017-08-27 08:53:25.295,-17
"98352101",2017-08-27 08:53:25.299,-15
"98352111",2017-08-27 08:53:25.305,-13
"98352121",2017-08-27 08:53:25.309,-15
"98352131",2017-08-27 08:53:25.315,-16
"98352141",2017-08-27 08:53:25.319,-15
"98352151",2017-08-27 08:53:25.325,-15
"98352161",2017-08-27 08:53:25.329,-16
"98352171",2017-08-27 08:53:25.335,-17
"98352181",2017-08-27 08:53:25.339,-17
"98352191",2017-08-27 08:53:25.345,-15
"98352201",2017-08-27 08:53:25.349,-14
"98352211",2017-08-27 08:53:25.355,-14
"98352221",2017-08-27 08:53:25.359,-14
"98352231",2017-08-27 08:53:25.365,-13
"98352241",2017-08-27 08:53:25.369,-13
"98352251",2017-08-27 08:53:25.375,-14
"98352261",2017-08-27 08:53:25.380,-13
"98352271",2017-08-27 08:53:25.384,-12
"98352281",2017-08-27 08:53:25.390,-12
"98352291",2017-08-27 08:53:25.394,-11
"98352301",2017-08-27 08:53:25.400,-11
"98352311",2017-08-27 08:53:25.404,-12
"98352321",2017-08-27 08:53:25.410,-12
"98352331",2017-08-27 08:53:25.414,-12
"98352341",2017-08-27 08:53:25.420,-11
"98352351",2017-08-27 08:53:25.424,-11
"98352361",2017-08-27 08:53:25.430,-14
"98352371",2017-08-27 08:53:25.434,-14
"98352381",2017-08-27 08:53:25.440,-12
"98352391",2017-08-27 08:53:25.444,-12
"98352401",2017-08-27 08:53:25.450,-13
"98352411",2017-08-27 08:53:25.454,-14
"98352421",2017-08-27 08:53:25.460,-14
"98352431",2017-08-27 08:53:25.464,-13
"98352441",2017-08-27 08:53:25.470,-11
"98352451",2017-08-27 08:53:25.474,-11
"98352461",2017-08-27 08:53:25.480,-11
"98352471",2017-08-27 08:53:25.484,-12
"98352481",2017-08-27 08:53:25.490,-12
"98352491",2017-08-27 08:53:25.494,-11
"98352501",2017-08-27 08:53:25.500,-12
"98352511",2017-08-27 08:53:25.505,-10
"98352521",2017-08-27 08:53:25.509,-8
"98352531",2017-08-27 08:53:25.515,-10
"98352541",2017-08-27 08:53:25.519,-12
"98352551",2017-08-27 08:53:25.525,-12
"98352561",2017-08-27 08:53:25.529,-11
"98352571",2017-08-27 08:53:25.535,-10
"98352581",2017-08-27 08:53:25.539,-11
"98352591",2017-08-27 08:53:25.545,-12
"98352601",2017-08-27 08:53:25.549,-13
"98352611",2017-08-27 08:53:25.555,-13
"98352621",2017-08-27 08:53:25.559,-12
"98352631",2017-08-27 08:53:25.565,-9
"98352641",2017-08-27 08:53:25.569,-7
"98352651",2017-08-27 08:53:25.575,-7
"98352661",2017-08-27 08:53:25.579,-7
"98352671",2017-08-27 08:53:25.585,-7
"98352681",2017-08-27 08:53:25.589,-9
"98352691",2017-08-27 08:53:25.595,-11
"98352701",2017-08-27 08:53:25.599,-11
"98352711",2017-08-27 08:53:25.605,-9
"98352721",2017-08-27 08:53:25.609,-9
"98352731",2017-08-27 08:53:25.615,-9
"98352741",2017-08-27 08:53:25.619,-8
"98352751",2017-08-27 08:53:25.625,-8
"98352761",2017-08-27 08:53:25.630,-10
"98352771",2017-08-27 08:53:25.634,-10
"98352781",2017-08-27 08:53:25.640,-8
"98352791",2017-08-27 08:53:25.644,-7
"98352801",2017-08-27 08:53:25.650,-7
"98352811",2017-08-27 08:53:25.654,-7
"98352821",2017-08-27 08:53:25.660,-8
"98352831",2017-08-27 08:53:25.664,-6
"98352841",2017-08-27 08:53:25.670,-7
"98352851",2017-08-27 08:53:25.674,-8
"98352861",2017-08-27 08:53:25.680,-9
"98352871",2017-08-27 08:53:25.684,-8
"98352881",2017-08-27 08:53:25.690,-8
"98352891",2017-08-27 08:53:25.694,-7
"98352901",2017-08-27 08:53:25.700,-6
"98352911",2017-08-27 08:53:25.704,-6
"98352921",2017-08-27 08:53:25.710,-6
"98352931",2017-08-27 08:53:25.714,-7
"98352941",2017-08-27 08:53:25.720,-6
"98352951",2017-08-27 08:53:25.724,-4
"98352961",2017-08-27 08:53:25.730,-4
"98352971",2017-08-27 08:53:25.734,-6
"98352981",2017-08-27 08:53:25.740,-7
"98352991",2017-08-27 08:53:25.744,-7
"98353001",2017-08-27 08:53:25.750,-6
"98353011",2017-08-27 08:53:25.755,-4
"98353021",2017-08-27 08:53:25.759,-5
"98353031",2017-08-27 08:53:25.765,-7
"98353041",2017-08-27 08:53:25.769,-7
"98353051",2017-08-27 08:53:25.775,-6
"98353061",2017-08-27 08:53:25.779,-5
"98353071",2017-08-27 08:53:25.785,-5
"98353081",2017-08-27 08:53:25.789,-6
"98353091",2017-08-27 08:53:25.795,-5
"98353101",2017-08-27 08:53:25.799,-5
"98353111",2017-08-27 08:53:25.805,-6
"98353121",2017-08-27 08:53:25.809,-6
"98353131",2017-08-27 08:53:25.815,-3
"98353141",2017-08-27 08:53:25.819,-2
"98353151",2017-08-27 08:53:25.825,-4
"98353161",2017-08-27 08:53:25.829,-6
"98353171",2017-08-27 08:53:25.835,-5
"98353181",2017-08-27 08:53:25.839,-3
"98353191",2017-08-27 08:53:25.845,-2
"98353201",2017-08-27 08:53:25.849,-2
"98353211",2017-08-27 08:53:25.855,-2
"98353221",2017-08-27 08:53:25.859,-2
"98353231",2017-08-27 08:53:25.865,0
"98353241",2017-08-27 08:53:25.869,1
"98353251",2017-08-27 08:53:25.875,3
"98353261",2017-08-27 08:53:25.880,2
"98353271",2017-08-27 08:53:25.884,2
"98353281",2017-08-27 08:53:25.890,2
"98353291",2017-08-27 08:53:25.894,2
"98353301",2017-08-27 08:53:25.900,4
"98353311",2017-08-27 08:53:25.904,5
"98353321",2017-08-27 08:53:25.910,5
"98353331",2017-08-27 08:53:25.914,3
"98353341",2017-08-27 08:53:25.920,2
"98353351",2017-08-27 08:53:25.924,1
"98353361",2017-08-27 08:53:25.930,0
"98353371",2017-08-27 08:53:25.934,-2
"98353381",2017-08-27 08:53:25.940,-6
"98353391",2017-08-27 08:53:25.944,-7
"98353401",2017-08-27 08:53:25.950,-7
"98353411",2017-08-27 08:53:25.954,-5
"98353421",2017-08-27 08:53:25.960,-4
"98353431",2017-08-27 08:53:25.964,-5
"98353441",2017-08-27 08:53:25.970,-4
"98353451",2017-08-27 08:53:25.974,8
"98353461",2017-08-27 08:53:25.980,37
"98353471",2017-08-27 08:53:25.984,73
"98353481",2017-08-27 08:53:25.990,93
"98353491",2017-08-27 08:53:25.994,75
"98353501",2017-08-27 08:53:26.000,32
"98353511",2017-08-27 08:53:26.005,0
"98353521",2017-08-27 08:53:26.009,-5
"98353531",2017-08-27 08:53:26.015,2
"98353541",2017-08-27 08:53:26.019,11
"98353551",2017-08-27 08:53:26.025,14
"98353561",2017-08-27 08:53:26.029,14
"98353571",2017-08-27 08:53:26.035,11
"98353581",2017-08-27 08:53:26.039,8
"98353591",2017-08-27 08:53:26.045,6
"98353601",2017-08-27 08:53:26.049,4
"98353611",2017-08-27 08:53:26.055,3
"98353621",2017-08-27 08:53:26.059,4
"98353631",2017-08-27 08:53:26.065,4
"98353641",2017-08-27 08:53:26.069,3
"98353651",2017-08-27 08:53:26.075,4
"98353661",2017-08-27 08:53:26.079,5
"98353671",2017-08-27 08:53:26.085,5
"98353681",2017-08-27 08:53:26.089,6
"98353691",2017-08-27 08:53:26.095,6
"98353701",2017-08-27 08:53:26.099,6
"98353711",2017-08-27 08:53:26.105,6
"98353721",2017-08-27 08:53:26.109,6
"98353731",2017-08-27 08:53:26.115,6
"98353741",2017-08-27 08:53:26.119,7
"98353751",2017-08-27 08:53:26.125,8
"98353761",2017-08-27 08:53:26.130,9
"98353771",2017-08-27 08:53:26.134,10
"98353781",2017-08-27 08:53:26.140,11
"98353791",2017-08-27 08:53:26.144,11
"98353801",2017-08-27 08:53:26.150,11
"98353811",2017-08-27 08:53:26.154,12
"98353821",2017-08-27 08:53:26.160,13
"98353831",2017-08-27 08:53:26.164,14
"98353841",2017-08-27 08:53:26.170,14
"98353851",2017-08-27 08:53:26.174,14
"98353861",2017-08-27 08:53:26.180,17
"98353871",2017-08-27 08:53:26.184,20
"98353881",2017-08-27 08:53:26.190,23
"98353891",2017-08-27 08:53:26.194,26
"98353901",2017-08-27 08:53:26.200,28
"98353911",2017-08-27 08:53:26.204,28
"98353921",2017-08-27 08:53:26.210,29
"98353931",2017-08-27 08:53:26.214,32
"98353941",2017-08-27 08:53:26.220,32
"98353951",2017-08-27 08:53:26.224,32
"98353961",2017-08-27 08:53:26.230,34
"98353971",2017-08-27 08:53:26.234,33
"98353981",2017-08-27 08:53:26.240,32
"98353991",2017-08-27 08:53:26.244,30
"98354001",2017-08-27 08:53:26.250,29
"98354011",2017-08-27 08:53:26.255,27
"98354021",2017-08-27 08:53:26.259,23
"98354031",2017-08-27 08:53:26.265,18
"98354041",2017-08-27 08:53:26.269,13
"98354051",2017-08-27 08:53:26.275,8
"98354061",2017-08-27 08:53:26.279,4
"98354071",2017-08-27 08:53:26.285,0
"98354081",2017-08-27 08:53:26.289,-2
"98354091",2017-08-27 08:53:26.295,-5
"98354101",2017-08-27 08:53:26.299,-10
"98354111",2017-08-27 08:53:26.305,-14
"98354121",2017-08-27 08:53:26.309,-15
"98354131",2017-08-27 08:53:26.315,-14
"98354141",2017-08-27 08:53:26.319,-16
"98354151",2017-08-27 08:53:26.325,-17
"98354161",2017-08-27 08:53:26.329,-17
"98354171",2017-08-27 08:53:26.335,-17
"98354181",2017-08-27 08:53:26.339,-18
"98354191",2017-08-27 08:53:26.345,-18
"98354201",2017-08-27 08:53:26.349,-17
"98354211",2017-08-27 08:53:26.355,-16
"98354221",2017-08-27 08:53:26.359,-17
"98354231",2017-08-27 08:53:26.365,-17
"98354241",2017-08-27 08:53:26.369,-17
"98354251",2017-08-27 08:53:26.375,-18
"98354261",2017-08-27 08:53:26.380,-18
"98354271",2017-08-27 08:53:26.384,-16
"98354281",2017-08-27 08:53:26.390,-15
"98354291",2017-08-27 08:53:26.394,-16
"98354301",2017-08-27 08:53:26.400,-16
"98354311",2017-08-27 08:53:26.404,-15
"98354321",2017-08-27 08:53:26.410,-14
"98354331",2017-08-27 08:53:26.414,-14
"98354341",2017-08-27 08:53:26.420,-13
"98354351",2017-08-27 08:53:26.424,-13
"98354361",2017-08-27 08:53:26.430,-14
"98354371",2017-08-27 08:53:26.434,-15
"98354381",2017-08-27 08:53:26.440,-13
"98354391",2017-08-27 08:53:26.444,-13
"98354401",2017-08-27 08:53:26.450,-14
"98354411",2017-08-27 08:53:26.454,-14
"98354421",2017-08-27 08:53:26.460,-12
"98354431",2017-08-27 08:53:26.464,-12
"98354441",2017-08-27 08:53:26.470,-13
"98354451",2017-08-27 08:53:26.474,-13
"98354461",2017-08-27 08:53:26.480,-13
"98354471",2017-08-27 08:53:26.484,-12
"98354481",2017-08-27 08:53:26.490,-10
"98354491",2017-08-27 08:53:26.494,-10
"98354501",2017-08-27 08:53:26.500,-11
"98354511",2017-08-27 08:53:26.505,-11
"98354521",2017-08-27 08:53:26.509,-12
"98354531",2017-08-27 08:53:26.515,-13
"98354541",2017-08-27 08:53:26.519,-12
"98354551",2017-08-27 08:53:26.525,-10
"98354561",2017-08-27 08:53:26.529,-11
"98354571",2017-08-27 08:53:26.535,-12
"98354581",2017-08-27 08:53:26.539,-12
"98354591",2017-08-27 08:53:26.545,-11
"98354601",2017-08-27 08:53:26.549,-11
"98354611",2017-08-27 08:53:26.555,-12
"98354621",2017-08-27 08:53:26.559,-13
"98354631",2017-08-27 08:53:26.565,-12
"98354641",2017-08-27 08:53:26.569,-12
"98354651",2017-08-27 08:53:26.575,-11
"98354661",2017-08-27 08:53:26.579,-11
"98354671",2017-08-27 08:53:26.585,-11
"98354681",2017-08-27 08:53:26.589,-10
"98354691",2017-08-27 08:53:26.595,-8
"98354701",2017-08-27 08:53:26.599,-9
"98354711",2017-08-27 08:53:26.605,-10
"98354721",2017-08-27 08:53:26.609,-10
"98354731",2017-08-27 08:53:26.615,-10
"98354741",2017-08-27 08:53:26.619,-10
"98354751",2017-08-27 08:53:26.625,-10
"98354761",2017-08-27 08:53:26.630,-11
"98354771",2017-08-27 08:53:26.634,-11
"98354781",2017-08-27 08:53:26.640,-9
"98354791",2017-08-27 08:53:26.644,-7
"98354801",2017-08-27 08:53:26.650,-9
"98354811",2017-08-27 08:53:26.654,-9
"98354821",2017-08-27 08:53:26.660,-9
"98354831",2017-08-27 08:53:26.664,-8
"98354841",2017-08-27 08:53:26.670,-7
"98354851",2017-08-27 08:53:26.674,-8
"98354861",2017-08-27 08:53:26.680,-9
"98354871",2017-08-27 08:53:26.684,-9
"98354881",2017-08-27 08:53:26.690,-8
"98354891",2017-08-27 08:53:26.694,-7
"98354901",2017-08-27 08:53:26.700,-7
"98354911",2017-08-27 08:53:26.704,-8
"98354921",2017-08-27 08:53:26.710,-8
"98354931",2017-08-27 08:53:26.714,-8
"98354941",2017-08-27 08:53:26.720,-8
"98354951",2017-08-27 08:53:26.724,-9
"98354961",2017-08-27 08:53:26.730,-9
"98354971",2017-08-27 08:53:26.734,-7
"98354981",2017-08-27 08:53:26.740,-6
"98354991",2017-08-27 08:53:26.744,-7
"98355001",2017-08-27 08:53:26.750,-7
"98355011",2017-08-27 08:53:26.755,-6
"98355021",2017-08-27 08:53:26.759,-5
"98355031",2017-08-27 08:53:26.765,-5
"98355041",2017-08-27 08:53:26.769,-7
"98355051",2017-08-27 08:53:26.775,-7
"98355061",2017-08-27 08:53:26.779,-7
"98355071",2017-08-27 08:53:26.785,-6
"98355081",2017-08-27 08:53:26.789,-7
"98355091",2017-08-27 08:53:26.795,-7
"98355101",2017-08-27 08:53:26.799,-8
"98355111",2017-08-27 08:53:26.805,-8
"98355121",2017-08-27 08:53:26.809,-7
"98355131",2017-08-27 08:53:26.815,-6
"98355141",2017-08-27 08:53:26.819,-4
"98355151",2017-08-27 08:53:26.825,-4
"98355161",2017-08-27 08:53:26.829,-6
"98355171",2017-08-27 08:53:26.835,-6
"98355181",2017-08-27 08:53:26.839,-6
"98355191",2017-08-27 08:53:26.845,-5
"98355201",2017-08-27 08:53:26.849,-5
"98355211",2017-08-27 08:53:26.855,-4
"98355221",2017-08-27 08:53:26.859,-4
"98355231",2017-08-27 08:53:26.865,-3
"98355241",2017-08-27 08:53:26.869,-4
"98355251",2017-08-27 08:53:26.875,-6
"98355261",2017-08-27 08:53:26.880,-7
"98355271",2017-08-27 08:53:26.884,-6
"98355281",2017-08-27 08:53:26.890,-6
"98355291",2017-08-27 08:53:26.894,-3
"98355301",2017-08-27 08:53:26.900,-2
"98355311",2017-08-27 08:53:26.904,0
"98355321",2017-08-27 08:53:26.910,2
"98355331",2017-08-27 08:53:26.914,1
"98355341",2017-08-27 08:53:26.920,0
"98355351",2017-08-27 08:53:26.924,1
"98355361",2017-08-27 08:53:26.930,5
"98355371",2017-08-27 08:53:26.934,6
"98355381",2017-08-27 08:53:26.940,5
"98355391",2017-08-27 08:53:26.944,4
"98355401",2017-08-27 08:53:26.950,3
"98355411",2017-08-27 08:53:26.954,3
"98355421",2017-08-27 08:53:26.960,3
"98355431",2017-08-27 08:53:26.964,2
"98355441",2017-08-27 08:53:26.970,0
"98355451",2017-08-27 08:53:26.974,-2
"98355461",2017-08-27 08:53:26.980,-5
"98355471",2017-08-27 08:53:26.984,-7
"98355481",2017-08-27 08:53:26.990,-7
"98355491",2017-08-27 08:53:26.994,-7
"98355501",2017-08-27 08:53:27.000,-8
"98355511",2017-08-27 08:53:27.005,-8
"98355521",2017-08-27 08:53:27.009,-4
"98355531",2017-08-27 08:53:27.015,8
"98355541",2017-08-27 08:53:27.019,40
"98355551",2017-08-27 08:53:27.025,77
"98355561",2017-08-27 08:53:27.029,95
"98355571",2017-08-27 08:53:27.035,77
"98355581",2017-08-27 08:53:27.039,33
"98355591",2017-08-27 08:53:27.045,-1
"98355601",2017-08-27 08:53:27.049,-5
"98355611",2017-08-27 08:53:27.055,5
"98355621",2017-08-27 08:53:27.059,13
"98355631",2017-08-27 08:53:27.065,12
"98355641",2017-08-27 08:53:27.069,11
"98355651",2017-08-27 08:53:27.075,10
"98355661",2017-08-27 08:53:27.079,10
"98355671",2017-08-27 08:53:27.085,9
"98355681",2017-08-27 08:53:27.089,8
"98355691",2017-08-27 08:53:27.095,7
"98355701",2017-08-27 08:53:27.099,6
"98355711",2017-08-27 08:53:27.105,6
"98355721",2017-08-27 08:53:27.109,6
"98355731",2017-08-27 08:53:27.115,5
"98355741",2017-08-27 08:53:27.119,6
"98355751",2017-08-27 08:53:27.125,7
"98355761",2017-08-27 08:53:27.130,6
"98355771",2017-08-27 08:53:27.134,7
"98355781",2017-08-27 08:53:27.140,8
"98355791",2017-08-27 08:53:27.144,9
"98355801",2017-08-27 08:53:27.150,8
"98355811",2017-08-27 08:53:27.154,9
"98355821",2017-08-27 08:53:27.160,9
"98355831",2017-08-27 08:53:27.164,8
"98355841",2017-08-27 08:53:27.170,10
"98355851",2017-08-27 08:53:27.174,12
"98355861",2017-08-27 08:53:27.180,12
"98355871",2017-08-27 08:53:27.184,11
"98355881",2017-08-27 08:53:27.190,12
"98355891",2017-08-27 08:53:27.194,14
"98355901",2017-08-27 08:53:27.200,16
"98355911",2017-08-27 08:53:27.204,17
"98355921",2017-08-27 08:53:27.210,18
"98355931",2017-08-27 08:53:27.214,20
"98355941",2017-08-27 08:53:27.220,22
"98355951",2017-08-27 08:53:27.224,22
"98355961",2017-08-27 08:53:27.230,23
"98355971",2017-08-27 08:53:27.234,25
"98355981",2017-08-27 08:53:27.240,27
"98355991",2017-08-27 08:53:27.244,28
"98356001",2017-08-27 08:53:27.250,31
"98356011",2017-08-27 08:53:27.255,33
"98356021",2017-08-27 08:53:27.259,35
"98356031",2017-08-27 08:53:27.265,36
"98356041",2017-08-27 08:53:27.269,36
"98356051",2017-08-27 08:53:27.275,33
"98356061",2017-08-27 08:53:27.279,31
"98356071",2017-08-27 08:53:27.285,32
"98356081",2017-08-27 08:53:27.289,35
"98356091",2017-08-27 08:53:27.295,32
"98356101",2017-08-27 08:53:27.299,25
"98356111",2017-08-27 08:53:27.305,19
"98356121",2017-08-27 08:53:27.309,17
"98356131",2017-08-27 08:53:27.315,12
"98356141",2017-08-27 08:53:27.319,5
"98356151",2017-08-27 08:53:27.325,0
"98356161",2017-08-27 08:53:27.329,-3
"98356171",2017-08-27 08:53:27.335,-7
"98356181",2017-08-27 08:53:27.339,-11
"98356191",2017-08-27 08:53:27.345,-11
"98356201",2017-08-27 08:53:27.349,-12
"98356211",2017-08-27 08:53:27.355,-13
"98356221",2017-08-27 08:53:27.359,-15
"98356231",2017-08-27 08:53:27.365,-16
"98356241",2017-08-27 08:53:27.369,-18
"98356251",2017-08-27 08:53:27.375,-16
"98356261",2017-08-27 08:53:27.380,-15
"98356271",2017-08-27 08:53:27.384,-14
"98356281",2017-08-27 08:53:27.390,-15
"98356291",2017-08-27 08:53:27.394,-17
"98356301",2017-08-27 08:53:27.400,-17
"98356311",2017-08-27 08:53:27.404,-14
"98356321",2017-08-27 08:53:27.410,-12
"98356331",2017-08-27 08:53:27.414,-12
"98356341",2017-08-27 08:53:27.420,-13
"98356351",2017-08-27 08:53:27.424,-14
"98356361",2017-08-27 08:53:27.430,-13
"98356371",2017-08-27 08:53:27.434,-13
"98356381",2017-08-27 08:53:27.440,-13
"98356391",2017-08-27 08:53:27.444,-12
"98356401",2017-08-27 08:53:27.450,-12
"98356411",2017-08-27 08:53:27.454,-12
"98356421",2017-08-27 08:53:27.460,-12
"98356431",2017-08-27 08:53:27.464,-12
"98356441",2017-08-27 08:53:27.470,-12
"98356451",2017-08-27 08:53:27.474,-11
"98356461",2017-08-27 08:53:27.480,-10
"98356471",2017-08-27 08:53:27.484,-9
"98356481",2017-08-27 08:53:27.490,-9
"98356491",2017-08-27 08:53:27.494,-9
"98356501",2017-08-27 08:53:27.500,-9
"98356511",2017-08-27 08:53:27.505,-8
"98356521",2017-08-27 08:53:27.509,-10
"98356531",2017-08-27 08:53:27.515,-9
"98356541",2017-08-27 08:53:27.519,-9
"98356551",2017-08-27 08:53:27.525,-10
"98356561",2017-08-27 08:53:27.529,-11
"98356571",2017-08-27 08:53:27.535,-10
"98356581",2017-08-27 08:53:27.539,-10
"98356591",2017-08-27 08:53:27.545,-9
"98356601",2017-08-27 08:53:27.549,-9
"98356611",2017-08-27 08:53:27.555,-9
"98356621",2017-08-27 08:53:27.559,-8
"98356631",2017-08-27 08:53:27.565,-8
"98356641",2017-08-27 08:53:27.569,-8
"98356651",2017-08-27 08:53:27.575,-8
"98356661",2017-08-27 08:53:27.579,-9
"98356671",2017-08-27 08:53:27.585,-11
"98356681",2017-08-27 08:53:27.589,-11
"98356691",2017-08-27 08:53:27.595,-9
"98356701",2017-08-27 08:53:27.599,-9
"98356711",2017-08-27 08:53:27.605,-8
"98356721",2017-08-27 08:53:27.609,-8
"98356731",2017-08-27 08:53:27.615,-8
"98356741",2017-08-27 08:53:27.619,-9
"98356751",2017-08-27 08:53:27.625,-9
"98356761",2017-08-27 08:53:27.630,-7
"98356771",2017-08-27 08:53:27.634,-7
"98356781",2017-08-27 08:53:27.640,-9
"98356791",2017-08-27 08:53:27.644,-10
"98356801",2017-08-27 08:53:27.650,-9
"98356811",2017-08-27 08:53:27.654,-8
"98356821",2017-08-27 08:53:27.660,-8
"98356831",2017-08-27 08:53:27.664,-8
"98356841",2017-08-27 08:53:27.670,-10
"98356851",2017-08-27 08:53:27.674,-10
"98356861",2017-08-27 08:53:27.680,-8
"98356871",2017-08-27 08:53:27.684,-5
"98356881",2017-08-27 08:53:27.690,-5
"98356891",2017-08-27 08:53:27.694,-6
"98356901",2017-08-27 08:53:27.700,-8
"98356911",2017-08-27 08:53:27.704,-10
"98356921",2017-08-27 08:53:27.710,-8
"98356931",2017-08-27 08:53:27.714,-5
"98356941",2017-08-27 08:53:27.720,-5
"98356951",2017-08-27 08:53:27.724,-7
"98356961",2017-08-27 08:53:27.730,-6
"98356971",2017-08-27 08:53:27.734,-5
"98356981",2017-08-27 08:53:27.740,-5
"98356991",2017-08-27 08:53:27.744,-6
"98357001",2017-08-27 08:53:27.750,-7
"98357011",2017-08-27 08:53:27.755,-7
"98357021",2017-08-27 08:53:27.759,-7
"98357031",2017-08-27 08:53:27.765,-5
"98357041",2017-08-27 08:53:27.769,-4
"98357051",2017-08-27 08:53:27.775,-4
"98357061",2017-08-27 08:53:27.779,-6
"98357071",2017-08-27 08:53:27.785,-7
"98357081",2017-08-27 08:53:27.789,-6
"98357091",2017-08-27 08:53:27.795,-4
"98357101",2017-08-27 08:53:27.799,-4
"98357111",2017-08-27 08:53:27.805,-4
"98357121",2017-08-27 08:53:27.809,-4
"98357131",2017-08-27 08:53:27.815,-5
"98357141",2017-08-27 08:53:27.819,-4
"98357151",2017-08-27 08:53:27.825,-3
"98357161",2017-08-27 08:53:27.829,-3
"98357171",2017-08-27 08:53:27.835,-5
"98357181",2017-08-27 08:53:27.839,-5
"98357191",2017-08-27 08:53:27.845,-5
"98357201",2017-08-27 08:53:27.849,-5
"98357211",2017-08-27 08:53:27.855,-5
"98357221",2017-08-27 08:53:27.859,-4
"98357231",2017-08-27 08:53:27.865,-4
"98357241",2017-08-27 08:53:27.869,-4
"98357251",2017-08-27 08:53:27.875,-4
"98357261",2017-08-27 08:53:27.880,-5
"98357271",2017-08-27 08:53:27.884,-4
"98357281",2017-08-27 08:53:27.890,-1
"98357291",2017-08-27 08:53:27.894,-1
"98357301",2017-08-27 08:53:27.900,-4
"98357311",2017-08-27 08:53:27.904,-5
"98357321",2017-08-27 08:53:27.910,-4
"98357331",2017-08-27 08:53:27.914,-2
"98357341",2017-08-27 08:53:27.920,0
"98357351",2017-08-27 08:53:27.924,1
"98357361",2017-08-27 08:53:27.930,1
"98357371",2017-08-27 08:53:27.934,0
"98357381",2017-08-27 08:53:27.940,1
"98357391",2017-08-27 08:53:27.944,1
"98357401",2017-08-27 08:53:27.950,2
"98357411",2017-08-27 08:53:27.954,5
"98357421",2017-08-27 08:53:27.960,6
"98357431",2017-08-27 08:53:27.964,5
"98357441",2017-08-27 08:53:27.970,4
"98357451",2017-08-27 08:53:27.974,1
"98357461",2017-08-27 08:53:27.980,-2
"98357471",2017-08-27 08:53:27.984,-4
"98357481",2017-08-27 08:53:27.990,-4
"98357491",2017-08-27 08:53:27.994,-5
"98357501",2017-08-27 08:53:28.000,-6
"98357511",2017-08-27 08:53:28.005,-5
"98357521",2017-08-27 08:53:28.009,-4
"98357531",2017-08-27 08:53:28.015,-4
"98357541",2017-08-27 08:53:28.019,-3
"98357551",2017-08-27 08:53:28.025,0
"98357561",2017-08-27 08:53:28.029,13
"98357571",2017-08-27 08:53:28.035,43
"98357581",2017-08-27 08:53:28.039,81
"98357591",2017-08-27 08:53:28.045,100
"98357601",2017-08-27 08:53:28.049,79
"98357611",2017-08-27 08:53:28.055,30
"98357621",2017-08-27 08:53:28.059,-7
"98357631",2017-08-27 08:53:28.065,-12
"98357641",2017-08-27 08:53:28.069,0
"98357651",2017-08-27 08:53:28.075,9
"98357661",2017-08-27 08:53:28.079,14
"98357671",2017-08-27 08:53:28.085,15
"98357681",2017-08-27 08:53:28.089,12
"98357691",2017-08-27 08:53:28.095,10
"98357701",2017-08-27 08:53:28.099,10
"98357711",2017-08-27 08:53:28.105,9
"98357721",2017-08-27 08:53:28.109,7
"98357731",2017-08-27 08:53:28.115,5
"98357741",2017-08-27 08:53:28.119,6
"98357751",2017-08-27 08:53:28.125,5
"98357761",2017-08-27 08:53:28.130,5
"98357771",2017-08-27 08:53:28.134,6
"98357781",2017-08-27 08:53:28.140,6
"98357791",2017-08-27 08:53:28.144,6
"98357801",2017-08-27 08:53:28.150,6
"98357811",2017-08-27 08:53:28.154,8
"98357821",2017-08-27 08:53:28.160,9
"98357831",2017-08-27 08:53:28.164,8
"98357841",2017-08-27 08:53:28.170,7
"98357851",2017-08-27 08:53:28.174,8
"98357861",2017-08-27 08:53:28.180,10
"98357871",2017-08-27 08:53:28.184,11
"98357881",2017-08-27 08:53:28.190,12
"98357891",2017-08-27 08:53:28.194,14
"98357901",2017-08-27 08:53:28.200,14
"98357911",2017-08-27 08:53:28.204,13
"98357921",2017-08-27 08:53:28.210,13
"98357931",2017-08-27 08:53:28.214,15
"98357941",2017-08-27 08:53:28.220,17
"98357951",2017-08-27 08:53:28.224,18
"98357961",2017-08-27 08:53:28.230,20
"98357971",2017-08-27 08:53:28.234,23
"98357981",2017-08-27 08:53:28.240,25
"98357991",2017-08-27 08:53:28.244,24
"98358001",2017-08-27 08:53:28.250,25
"98358011",2017-08-27 08:53:28.255,29
"98358021",2017-08-27 08:53:28.259,34
"98358031",2017-08-27 08:53:28.265,34
"98358041",2017-08-27 08:53:28.269,34
"98358051",2017-08-27 08:53:28.275,36
"98358061",2017-08-27 08:53:28.279,39
"98358071",2017-08-27 08:53:28.285,39
"98358081",2017-08-27 08:53:28.289,39
"98358091",2017-08-27 08:53:28.295,38
"98358101",2017-08-27 08:53:28.299,37
"98358111",2017-08-27 08:53:28.305,35
"98358121",2017-08-27 08:53:28.309,31
"98358131",2017-08-27 08:53:28.315,26
"98358141",2017-08-27 08:53:28.319,21
"98358151",2017-08-27 08:53:28.325,18
"98358161",2017-08-27 08:53:28.329,15
"98358171",2017-08-27 08:53:28.335,8
"98358181",2017-08-27 08:53:28.339,0
"98358191",2017-08-27 08:53:28.345,-3
"98358201",2017-08-27 08:53:28.349,-4
"98358211",2017-08-27 08:53:28.355,-7
"98358221",2017-08-27 08:53:28.359,-11
"98358231",2017-08-27 08:53:28.365,-14
"98358241",2017-08-27 08:53:28.369,-16
"98358251",2017-08-27 08:53:28.375,-17
"98358261",2017-08-27 08:53:28.380,-18
"98358271",2017-08-27 08:53:28.384,-17
"98358281",2017-08-27 08:53:28.390,-17
"98358291",2017-08-27 08:53:28.394,-15
"98358301",2017-08-27 08:53:28.400,-14
"98358311",2017-08-27 08:53:28.404,-16
"98358321",2017-08-27 08:53:28.410,-17
"98358331",2017-08-27 08:53:28.414,-17
"98358341",2017-08-27 08:53:28.420,-16
"98358351",2017-08-27 08:53:28.424,-14
"98358361",2017-08-27 08:53:28.430,-13
"98358371",2017-08-27 08:53:28.434,-14
"98358381",2017-08-27 08:53:28.440,-16
"98358391",2017-08-27 08:53:28.444,-16
"98358401",2017-08-27 08:53:28.450,-13
"98358411",2017-08-27 08:53:28.454,-13
"98358421",2017-08-27 08:53:28.460,-13
"98358431",2017-08-27 08:53:28.464,-11
"98358441",2017-08-27 08:53:28.470,-11
"98358451",2017-08-27 08:53:28.474,-11
"98358461",2017-08-27 08:53:28.480,-11
"98358471",2017-08-27 08:53:28.484,-13
"98358481",2017-08-27 08:53:28.490,-12
"98358491",2017-08-27 08:53:28.494,-10
"98358501",2017-08-27 08:53:28.500,-9
"98358511",2017-08-27 08:53:28.505,-9
"98358521",2017-08-27 08:53:28.509,-11
"98358531",2017-08-27 08:53:28.515,-11
"98358541",2017-08-27 08:53:28.519,-9
"98358551",2017-08-27 08:53:28.525,-11
"98358561",2017-08-27 08:53:28.529,-12
"98358571",2017-08-27 08:53:28.535,-10
"98358581",2017-08-27 08:53:28.539,-10
"98358591",2017-08-27 08:53:28.545,-10
"98358601",2017-08-27 08:53:28.549,-11
"98358611",2017-08-27 08:53:28.555,-10
"98358621",2017-08-27 08:53:28.559,-8
"98358631",2017-08-27 08:53:28.565,-9
"98358641",2017-08-27 08:53:28.569,-10
"98358651",2017-08-27 08:53:28.575,-10
"98358661",2017-08-27 08:53:28.579,-10
"98358671",2017-08-27 08:53:28.585,-12
"98358681",2017-08-27 08:53:28.589,-11
"98358691",2017-08-27 08:53:28.595,-9
"98358701",2017-08-27 08:53:28.599,-10
"98358711",2017-08-27 08:53:28.605,-10
"98358721",2017-08-27 08:53:28.609,-10
"98358731",2017-08-27 08:53:28.615,-11
"98358741",2017-08-27 08:53:28.619,-12
"98358751",2017-08-27 08:53:28.625,-10
"98358761",2017-08-27 08:53:28.630,-10
"98358771",2017-08-27 08:53:28.634,-11
"98358781",2017-08-27 08:53:28.640,-12
"98358791",2017-08-27 08:53:28.644,-10
"98358801",2017-08-27 08:53:28.650,-9
"98358811",2017-08-27 08:53:28.654,-10
"98358821",2017-08-27 08:53:28.660,-10
"98358831",2017-08-27 08:53:28.664,-9
"98358841",2017-08-27 08:53:28.670,-9
"98358851",2017-08-27 08:53:28.674,-10
"98358861",2017-08-27 08:53:28.680,-13
"98358871",2017-08-27 08:53:28.684,-14
"98358881",2017-08-27 08:53:28.690,-12
"98358891",2017-08-27 08:53:28.694,-9
"98358901",2017-08-27 08:53:28.700,-8
"98358911",2017-08-27 08:53:28.704,-9
"98358921",2017-08-27 08:53:28.710,-10
"98358931",2017-08-27 08:53:28.714,-9
"98358941",2017-08-27 08:53:28.720,-10
"98358951",2017-08-27 08:53:28.724,-11
"98358961",2017-08-27 08:53:28.730,-10
"98358971",2017-08-27 08:53:28.734,-8
"98358981",2017-08-27 08:53:28.740,-8
"98358991",2017-08-27 08:53:28.744,-9
"98359001",2017-08-27 08:53:28.750,-9
"98359011",2017-08-27 08:53:28.755,-9
"98359021",2017-08-27 08:53:28.759,-9
"98359031",2017-08-27 08:53:28.765,-8
"98359041",2017-08-27 08:53:28.769,-7
"98359051",2017-08-27 08:53:28.775,-7
"98359061",2017-08-27 08:53:28.779,-8
"98359071",2017-08-27 08:53:28.785,-6
"98359081",2017-08-27 08:53:28.789,-6
"98359091",2017-08-27 08:53:28.795,-7
"98359101",2017-08-27 08:53:28.799,-8
"98359111",2017-08-27 08:53:28.805,-8
"98359121",2017-08-27 08:53:28.809,-8
"98359131",2017-08-27 08:53:28.815,-7
"98359141",2017-08-27 08:53:28.819,-8
"98359151",2017-08-27 08:53:28.825,-11
"98359161",2017-08-27 08:53:28.829,-11
"98359171",2017-08-27 08:53:28.835,-7
"98359181",2017-08-27 08:53:28.839,-6
"98359191",2017-08-27 08:53:28.845,-6
"98359201",2017-08-27 08:53:28.849,-5
"98359211",2017-08-27 08:53:28.855,-5
"98359221",2017-08-27 08:53:28.859,-7
"98359231",2017-08-27 08:53:28.865,-8
"98359241",2017-08-27 08:53:28.869,-8
"98359251",2017-08-27 08:53:28.875,-7
"98359261",2017-08-27 08:53:28.880,-6
"98359271",2017-08-27 08:53:28.884,-7
"98359281",2017-08-27 08:53:28.890,-8
"98359291",2017-08-27 08:53:28.894,-8
"98359301",2017-08-27 08:53:28.900,-6
"98359311",2017-08-27 08:53:28.904,-4
"98359321",2017-08-27 08:53:28.910,-5
"98359331",2017-08-27 08:53:28.914,-6
"98359341",2017-08-27 08:53:28.920,-6
"98359351",2017-08-27 08:53:28.924,-4
"98359361",2017-08-27 08:53:28.930,-3
"98359371",2017-08-27 08:53:28.934,-3
"98359381",2017-08-27 08:53:28.940,-3
"98359391",2017-08-27 08:53:28.944,-2
"98359401",2017-08-27 08:53:28.950,0
"98359411",2017-08-27 08:53:28.954,1
"98359421",2017-08-27 08:53:28.960,1
"98359431",2017-08-27 08:53:28.964,2
"98359441",2017-08-27 08:53:28.970,3
"98359451",2017-08-27 08:53:28.974,2
"98359461",2017-08-27 08:53:28.980,0
"98359471",2017-08-27 08:53:28.984,-3
"98359481",2017-08-27 08:53:28.990,-4
"98359491",2017-08-27 08:53:28.994,-4
"98359501",2017-08-27 08:53:29.000,-6
"98359511",2017-08-27 08:53:29.005,-8
"98359521",2017-08-27 08:53:29.009,-10
"98359531",2017-08-27 08:53:29.015,-9
"98359541",2017-08-27 08:53:29.019,-8
"98359551",2017-08-27 08:53:29.025,-7
"98359561",2017-08-27 08:53:29.029,-4
"98359571",2017-08-27 08:53:29.035,5
"98359581",2017-08-27 08:53:29.039,32
"98359591",2017-08-27 08:53:29.045,72
"98359601",2017-08-27 08:53:29.049,94
"98359611",2017-08-27 08:53:29.055,77
"98359621",2017-08-27 08:53:29.059,33
"98359631",2017-08-27 08:53:29.065,-1
"98359641",2017-08-27 08:53:29.069,-8
"98359651",2017-08-27 08:53:29.075,0
"98359661",2017-08-27 08:53:29.079,10
"98359671",2017-08-27 08:53:29.085,11
"98359681",2017-08-27 08:53:29.089,8
"98359691",2017-08-27 08:53:29.095,7
"98359701",2017-08-27 08:53:29.099,7
"98359711",2017-08-27 08:53:29.105,4
"98359721",2017-08-27 08:53:29.109,4
"98359731",2017-08-27 08:53:29.115,5
"98359741",2017-08-27 08:53:29.119,4
"98359751",2017-08-27 08:53:29.125,4
"98359761",2017-08-27 08:53:29.130,3
"98359771",2017-08-27 08:53:29.134,2
"98359781",2017-08-27 08:53:29.140,3
"98359791",2017-08-27 08:53:29.144,4
"98359801",2017-08-27 08:53:29.150,5
"98359811",2017-08-27 08:53:29.154,5
"98359821",2017-08-27 08:53:29.160,5
"98359831",2017-08-27 08:53:29.164,5
"98359841",2017-08-27 08:53:29.170,6
"98359851",2017-08-27 08:53:29.174,6
"98359861",2017-08-27 08:53:29.180,6
"98359871",2017-08-27 08:53:29.184,8
"98359881",2017-08-27 08:53:29.190,10
"98359891",2017-08-27 08:53:29.194,9
"98359901",2017-08-27 08:53:29.200,10
"98359911",2017-08-27 08:53:29.204,12
"98359921",2017-08-27 08:53:29.210,13
"98359931",2017-08-27 08:53:29.214,13
"98359941",2017-08-27 08:53:29.220,15
"98359951",2017-08-27 08:53:29.224,16
"98359961",2017-08-27 08:53:29.230,16
"98359971",2017-08-27 08:53:29.234,18
"98359981",2017-08-27 08:53:29.240,21
"98359991",2017-08-27 08:53:29.244,23
"98360001",2017-08-27 08:53:29.250,24
"98360011",2017-08-27 08:53:29.255,25
"98360021",2017-08-27 08:53:29.259,29
"98360031",2017-08-27 08:53:29.265,30
"98360041",2017-08-27 08:53:29.269,29
